timestamp,price_usd
2024-11-12 14:00:00,0.018240701407194138
2024-11-12 15:00:00,0.018018536269664764
2024-11-12 16:00:00,0.01748555898666382
2024-11-12 17:00:00,0.017598966136574745
2024-11-12 18:00:00,0.017765305936336517
2024-11-12 19:00:00,0.017535516992211342
2024-11-12 20:00:00,0.017182594165205956
2024-11-12 21:00:00,0.017429083585739136
2024-11-12 22:00:00,0.01721034198999405
2024-11-12 23:00:00,0.017202362418174744
2024-11-13 00:00:00,0.01751535013318062
2024-11-13 01:00:00,0.01791694574058056
2024-11-13 02:00:00,0.018032358959317207
2024-11-13 03:00:00,0.017858214676380157
2024-11-13 04:00:00,0.01790420152246952
2024-11-13 05:00:00,0.017833348363637924
2024-11-13 06:00:00,0.017493728548288345
2024-11-13 07:00:00,0.01757938042283058
2024-11-13 08:00:00,0.016649769619107246
2024-11-13 09:00:00,0.016579054296016693
2024-11-13 10:00:00,0.016251295804977417
2024-11-13 11:00:00,0.01619756408035755
2024-11-13 12:00:00,0.01628194935619831
2024-11-13 13:00:00,0.016324056312441826
2024-11-13 14:00:00,0.016664132475852966
2024-11-13 15:00:00,0.0172316562384367
2024-11-13 16:00:00,0.017961451783776283
2024-11-13 17:00:00,0.017711754888296127
2024-11-13 18:00:00,0.018361974507570267
2024-11-13 19:00:00,0.018543701618909836
2024-11-13 20:00:00,0.017683815211057663
2024-11-13 21:00:00,0.01710035279393196
2024-11-13 22:00:00,0.01707605831325054
2024-11-13 23:00:00,0.016850702464580536
2024-11-14 00:00:00,0.016493577510118484
2024-11-14 01:00:00,0.016454443335533142
2024-11-14 02:00:00,0.01549058873206377
2024-11-14 03:00:00,0.015437468886375427
2024-11-14 04:00:00,0.015798240900039673
2024-11-14 05:00:00,0.015650061890482903
2024-11-14 06:00:00,0.015756841748952866
2024-11-14 07:00:00,0.015926159918308258
2024-11-14 08:00:00,0.015507951378822327
2024-11-14 09:00:00,0.015226772055029869
2024-11-14 10:00:00,0.015544534660875797
2024-11-14 11:00:00,0.015686044469475746
2024-11-14 12:00:00,0.015503588132560253
2024-11-14 13:00:00,0.01543344184756279
2024-11-14 14:00:00,0.015218889340758324
2024-11-14 15:00:00,0.015075603500008583
2024-11-14 16:00:00,0.014690874144434929
2024-11-14 17:00:00,0.014751912094652653
2024-11-14 18:00:00,0.014818938449025154
2024-11-14 19:00:00,0.014820128679275513
2024-11-14 20:00:00,0.014716598205268383
2024-11-14 21:00:00,0.014927875250577927
2024-11-14 22:00:00,0.015156619250774384
2024-11-14 23:00:00,0.015389988198876381
2024-11-15 00:00:00,0.01531596202403307
2024-11-15 01:00:00,0.015008284710347652
2024-11-15 02:00:00,0.01490430161356926
2024-11-15 03:00:00,0.015031437389552593
2024-11-15 04:00:00,0.015091120265424252
2024-11-15 05:00:00,0.015041932463645935
2024-11-15 06:00:00,0.015209750272333622
2024-11-15 07:00:00,0.015035022050142288
2024-11-15 08:00:00,0.015176738612353802
2024-11-15 09:00:00,0.01526885200291872
2024-11-15 10:00:00,0.01536441221833229
2024-11-15 11:00:00,0.015299433842301369
2024-11-15 12:00:00,0.01585867628455162
2024-11-15 13:00:00,0.01627548784017563
2024-11-15 14:00:00,0.01633547991514206
2024-11-15 15:00:00,0.01585819199681282
2024-11-15 16:00:00,0.01630658470094204
2024-11-15 17:00:00,0.015988217666745186
2024-11-15 18:00:00,0.016511309891939163
2024-11-15 19:00:00,0.0166542399674654
2024-11-15 20:00:00,0.016793059185147285
2024-11-15 21:00:00,0.016577832400798798
2024-11-15 22:00:00,0.016960041597485542
2024-11-15 23:00:00,0.01739223673939705
2024-11-16 00:00:00,0.01792597584426403
2024-11-16 01:00:00,0.017467867583036423
2024-11-16 02:00:00,0.017461951822042465
2024-11-16 03:00:00,0.017296839505434036
2024-11-16 04:00:00,0.01734052412211895
2024-11-16 05:00:00,0.017598431557416916
2024-11-16 06:00:00,0.017557548359036446
2024-11-16 07:00:00,0.01766105368733406
2024-11-16 08:00:00,0.017665205523371696
2024-11-16 09:00:00,0.017734374850988388
2024-11-16 10:00:00,0.01762080006301403
2024-11-16 11:00:00,0.017623068764805794
2024-11-16 12:00:00,0.017701484262943268
2024-11-16 13:00:00,0.017868807539343834
2024-11-16 14:00:00,0.018071569502353668
2024-11-16 15:00:00,0.017923926934599876
2024-11-16 16:00:00,0.017621852457523346
2024-11-16 17:00:00,0.017732402309775352
2024-11-16 18:00:00,0.01796143315732479
2024-11-16 19:00:00,0.01802406832575798
2024-11-16 20:00:00,0.017820490524172783
2024-11-16 21:00:00,0.017848342657089233
2024-11-16 22:00:00,0.017785321921110153
2024-11-16 23:00:00,0.016940832138061523
2024-11-17 00:00:00,0.01709485612809658
2024-11-17 01:00:00,0.01709873229265213
2024-11-17 02:00:00,0.01674959994852543
2024-11-17 03:00:00,0.016695590689778328
2024-11-17 04:00:00,0.017619939520955086
2024-11-17 05:00:00,0.01770506054162979
2024-11-17 06:00:00,0.017331354320049286
2024-11-17 07:00:00,0.0173703171312809
2024-11-17 08:00:00,0.017341719940304756
2024-11-17 09:00:00,0.017405536025762558
2024-11-17 10:00:00,0.0173860602080822
2024-11-17 11:00:00,0.01733841560781002
2024-11-17 12:00:00,0.017254875972867012
2024-11-17 13:00:00,0.017115527763962746
2024-11-17 14:00:00,0.017314136028289795
2024-11-17 15:00:00,0.01735452376306057
2024-11-17 16:00:00,0.01740110293030739
2024-11-17 17:00:00,0.017441309988498688
2024-11-17 18:00:00,0.01740807294845581
2024-11-17 19:00:00,0.017265979200601578
2024-11-17 20:00:00,0.017280876636505127
2024-11-17 21:00:00,0.017321614548563957
2024-11-17 22:00:00,0.016538185998797417
2024-11-17 23:00:00,0.016518721356987953
2024-11-18 00:00:00,0.01652398891746998
2024-11-18 01:00:00,0.01571948640048504
2024-11-18 02:00:00,0.015568415634334087
2024-11-18 03:00:00,0.015470743179321289
2024-11-18 04:00:00,0.015354721806943417
2024-11-18 05:00:00,0.015414980240166187
2024-11-18 06:00:00,0.015464505180716515
2024-11-18 07:00:00,0.015535824000835419
2024-11-18 08:00:00,0.016009926795959473
2024-11-18 09:00:00,0.016210928559303284
2024-11-18 10:00:00,0.016329078003764153
2024-11-18 11:00:00,0.016047947108745575
2024-11-18 12:00:00,0.01610509678721428
2024-11-18 13:00:00,0.016245942562818527
2024-11-18 14:00:00,0.01632591150701046
2024-11-18 15:00:00,0.01634867861866951
2024-11-18 16:00:00,0.016248395666480064
2024-11-18 17:00:00,0.01617209054529667
2024-11-18 18:00:00,0.016124891117215157
2024-11-18 19:00:00,0.01616199128329754
2024-11-18 20:00:00,0.016193348914384842
2024-11-18 21:00:00,0.016045868396759033
2024-11-18 22:00:00,0.015572426840662956
2024-11-18 23:00:00,0.015531315468251705
2024-11-19 00:00:00,0.015568564645946026
2024-11-19 01:00:00,0.01543463859707117
2024-11-19 02:00:00,0.015775127336382866
2024-11-19 03:00:00,0.015883293002843857
2024-11-19 04:00:00,0.01457036193460226
2024-11-19 05:00:00,0.01429697871208191
2024-11-19 06:00:00,0.014270753599703312
2024-11-19 07:00:00,0.014415676705539227
2024-11-19 08:00:00,0.014355526305735111
2024-11-19 09:00:00,0.014451617375016212
2024-11-19 10:00:00,0.014289447106420994
2024-11-19 11:00:00,0.014359225519001484
2024-11-19 12:00:00,0.014505671337246895
2024-11-19 13:00:00,0.014578979462385178
2024-11-19 14:00:00,0.014663469977676868
2024-11-19 15:00:00,0.014731568284332752
2024-11-19 16:00:00,0.014854212291538715
2024-11-19 17:00:00,0.015306978486478329
2024-11-19 18:00:00,0.015464155934751034
2024-11-19 19:00:00,0.015336859039962292
2024-11-19 20:00:00,0.015284845605492592
2024-11-19 21:00:00,0.015700561925768852
2024-11-19 22:00:00,0.015658168122172356
2024-11-19 23:00:00,0.015645885840058327
2024-11-20 00:00:00,0.015897255390882492
2024-11-20 01:00:00,0.015817347913980484
2024-11-20 02:00:00,0.01587020233273506
2024-11-20 03:00:00,0.015779530629515648
2024-11-20 04:00:00,0.015786971896886826
2024-11-20 05:00:00,0.015755193307995796
2024-11-20 06:00:00,0.01756799779832363
2024-11-20 07:00:00,0.016876431182026863
2024-11-20 08:00:00,0.01657550036907196
2024-11-20 09:00:00,0.016291452571749687
2024-11-20 10:00:00,0.01607036031782627
2024-11-20 11:00:00,0.016395024955272675
2024-11-20 12:00:00,0.016012318432331085
2024-11-20 13:00:00,0.016897039487957954
2024-11-20 14:00:00,0.0169675350189209
2024-11-20 15:00:00,0.017029903829097748
2024-11-20 16:00:00,0.01715662330389023
2024-11-20 17:00:00,0.01723725162446499
2024-11-20 18:00:00,0.016948437318205833
2024-11-20 19:00:00,0.015822356566786766
2024-11-20 20:00:00,0.015816841274499893
2024-11-20 21:00:00,0.016101306304335594
2024-11-20 22:00:00,0.016071850433945656
2024-11-20 23:00:00,0.015942692756652832
2024-11-21 00:00:00,0.016013307496905327
2024-11-21 01:00:00,0.01608772575855255
2024-11-21 02:00:00,0.01602870225906372
2024-11-21 03:00:00,0.01606844924390316
2024-11-21 04:00:00,0.016230957582592964
2024-11-21 05:00:00,0.016361190006136894
2024-11-21 06:00:00,0.01628165692090988
2024-11-21 07:00:00,0.01569262519478798
2024-11-21 08:00:00,0.015718862414360046
2024-11-21 09:00:00,0.01625102385878563
2024-11-21 10:00:00,0.015953410416841507
2024-11-21 11:00:00,0.015851642936468124
2024-11-21 12:00:00,0.01600659266114235
2024-11-21 13:00:00,0.016176166012883186
2024-11-21 14:00:00,0.0162432212382555
2024-11-21 15:00:00,0.015901869162917137
2024-11-21 16:00:00,0.01600370742380619
2024-11-21 17:00:00,0.016069043427705765
2024-11-21 18:00:00,0.01613764651119709
2024-11-21 19:00:00,0.01622617617249489
2024-11-21 20:00:00,0.015914764255285263
2024-11-21 21:00:00,0.01598075032234192
2024-11-21 22:00:00,0.016531361266970634
2024-11-21 23:00:00,0.016590457409620285
2024-11-22 00:00:00,0.016634494066238403
2024-11-22 01:00:00,0.0162274818867445
2024-11-22 02:00:00,0.016231846064329147
2024-11-22 03:00:00,0.016234198585152626
2024-11-22 04:00:00,0.01721818558871746
2024-11-22 05:00:00,0.017282087355852127
2024-11-22 06:00:00,0.017148233950138092
2024-11-22 07:00:00,0.017180193215608597
2024-11-22 08:00:00,0.017256436869502068
2024-11-22 09:00:00,0.017187438905239105
2024-11-22 10:00:00,0.016855388879776
2024-11-22 11:00:00,0.016870034858584404
2024-11-22 12:00:00,0.01681520603597164
2024-11-22 13:00:00,0.019714491441845894
2024-11-22 14:00:00,0.0198911651968956
2024-11-22 15:00:00,0.018845604732632637
2024-11-22 16:00:00,0.019095422700047493
2024-11-22 17:00:00,0.019291827455163002
2024-11-22 18:00:00,0.01851024478673935
2024-11-22 19:00:00,0.01813606545329094
2024-11-22 20:00:00,0.018244149163365364
2024-11-22 21:00:00,0.018911609426140785
2024-11-22 22:00:00,0.018599098548293114
2024-11-22 23:00:00,0.018528811633586884
2024-11-23 00:00:00,0.01815747283399105
2024-11-23 01:00:00,0.01757141202688217
2024-11-23 02:00:00,0.017208535224199295
2024-11-23 03:00:00,0.017227811738848686
2024-11-23 04:00:00,0.017310142517089844
2024-11-23 05:00:00,0.01737288385629654
2024-11-23 06:00:00,0.01692190021276474
2024-11-23 07:00:00,0.017767861485481262
2024-11-23 08:00:00,0.019363263621926308
2024-11-23 09:00:00,0.019124213606119156
2024-11-23 10:00:00,0.019023144617676735
2024-11-23 11:00:00,0.019325552508234978
2024-11-23 12:00:00,0.019169969484210014
2024-11-23 13:00:00,0.019341379404067993
2024-11-23 14:00:00,0.019381698220968246
2024-11-23 15:00:00,0.01944894902408123
2024-11-23 16:00:00,0.018444418907165527
2024-11-23 17:00:00,0.01864045485854149
2024-11-23 18:00:00,0.01861020177602768
2024-11-23 19:00:00,0.018895138055086136
2024-11-23 20:00:00,0.019722891971468925
2024-11-23 21:00:00,0.02018665336072445
2024-11-23 22:00:00,0.02047121152281761
2024-11-23 23:00:00,0.022277956828475
2024-11-24 00:00:00,0.02259761467576027
2024-11-24 01:00:00,0.021719370037317276
2024-11-24 02:00:00,0.02083105966448784
2024-11-24 03:00:00,0.020972194150090218
2024-11-24 04:00:00,0.020916001871228218
2024-11-24 05:00:00,0.021020252257585526
2024-11-24 06:00:00,0.021290520206093788
2024-11-24 07:00:00,0.02119918167591095
2024-11-24 08:00:00,0.02146945148706436
2024-11-24 09:00:00,0.021367831155657768
2024-11-24 10:00:00,0.021498389542102814
2024-11-24 11:00:00,0.021257253363728523
2024-11-24 12:00:00,0.02040766179561615
2024-11-24 13:00:00,0.019955160096287727
2024-11-24 14:00:00,0.02077026478946209
2024-11-24 15:00:00,0.020679356530308723
2024-11-24 16:00:00,0.02044503390789032
2024-11-24 17:00:00,0.020329810678958893
2024-11-24 18:00:00,0.020344583317637444
2024-11-24 19:00:00,0.020235247910022736
2024-11-24 20:00:00,0.020749039947986603
2024-11-24 21:00:00,0.020727045834064484
2024-11-24 22:00:00,0.020785551518201828
2024-11-24 23:00:00,0.021025417372584343
2024-11-25 00:00:00,0.021318644285202026
2024-11-25 01:00:00,0.021125581115484238
2024-11-25 02:00:00,0.020888622850179672
2024-11-25 03:00:00,0.02089928276836872
2024-11-25 04:00:00,0.020948637276887894
2024-11-25 05:00:00,0.021066943183541298
2024-11-25 06:00:00,0.021055234596133232
2024-11-25 07:00:00,0.021013343706727028
2024-11-25 08:00:00,0.021995361894369125
2024-11-25 09:00:00,0.022735605016350746
2024-11-25 10:00:00,0.02263980358839035
2024-11-25 11:00:00,0.024405894801020622
2024-11-25 12:00:00,0.024840958416461945
2024-11-25 13:00:00,0.024401912465691566
2024-11-25 14:00:00,0.02429894357919693
2024-11-25 15:00:00,0.026287196204066277
2024-11-25 16:00:00,0.02725326456129551
2024-11-25 17:00:00,0.02762562222778797
2024-11-25 18:00:00,0.027675829827785492
2024-11-25 19:00:00,0.025880008935928345
2024-11-25 20:00:00,0.02622183971107006
2024-11-25 21:00:00,0.02744268625974655
2024-11-25 22:00:00,0.025953564792871475
2024-11-25 23:00:00,0.025427913293242455
2024-11-26 00:00:00,0.025485392659902573
2024-11-26 01:00:00,0.02643507532775402
2024-11-26 02:00:00,0.026797112077474594
2024-11-26 03:00:00,0.0268128402531147
2024-11-26 04:00:00,0.026910122483968735
2024-11-26 05:00:00,0.02710370346903801
2024-11-26 06:00:00,0.027273928746581078
2024-11-26 07:00:00,0.02774970978498459
2024-11-26 08:00:00,0.027329014614224434
2024-11-26 09:00:00,0.02845405787229538
2024-11-26 10:00:00,0.029210181906819344
2024-11-26 11:00:00,0.025675730779767036
2024-11-26 12:00:00,0.025260446593165398
2024-11-26 13:00:00,0.025618189945816994
2024-11-26 14:00:00,0.029699718579649925
2024-11-26 15:00:00,0.03242480754852295
2024-11-26 16:00:00,0.03224272280931473
2024-11-26 17:00:00,0.0330953523516655
2024-11-26 18:00:00,0.03624677285552025
2024-11-26 19:00:00,0.0335269421339035
2024-11-26 20:00:00,0.033793043345212936
2024-11-26 21:00:00,0.0327170193195343
2024-11-26 22:00:00,0.03586200997233391
2024-11-26 23:00:00,0.03559791296720505
2024-11-27 00:00:00,0.036638978868722916
2024-11-27 01:00:00,0.03551632910966873
2024-11-27 02:00:00,0.0334574431180954
2024-11-27 03:00:00,0.03322234004735947
2024-11-27 04:00:00,0.03304135054349899
2024-11-27 05:00:00,0.03404197096824646
2024-11-27 06:00:00,0.03517930582165718
2024-11-27 07:00:00,0.03541695699095726
2024-11-27 08:00:00,0.03589848056435585
2024-11-27 09:00:00,0.03458136320114136
2024-11-27 10:00:00,0.03508864343166351
2024-11-27 11:00:00,0.034935951232910156
2024-11-27 12:00:00,0.03347491845488548
2024-11-27 13:00:00,0.033016905188560486
2024-11-27 14:00:00,0.03178761154413223
2024-11-27 15:00:00,0.03464076295495033
2024-11-27 16:00:00,0.03361523896455765
2024-11-27 17:00:00,0.033862173557281494
2024-11-27 18:00:00,0.03160493075847626
2024-11-27 19:00:00,0.032497383654117584
2024-11-27 20:00:00,0.03216502070426941
2024-11-27 21:00:00,0.031374379992485046
2024-11-27 22:00:00,0.03140248730778694
2024-11-27 23:00:00,0.03086266852915287
2024-11-28 00:00:00,0.03204754739999771
2024-11-28 01:00:00,0.032392073422670364
2024-11-28 02:00:00,0.03235037252306938
2024-11-28 03:00:00,0.031687863171100616
2024-11-28 04:00:00,0.031225429847836494
2024-11-28 05:00:00,0.030681462958455086
2024-11-28 06:00:00,0.030658990144729614
2024-11-28 07:00:00,0.03027627244591713
2024-11-28 08:00:00,0.030124982818961143
2024-11-28 09:00:00,0.03139015659689903
2024-11-28 10:00:00,0.031299471855163574
2024-11-28 11:00:00,0.03168497234582901
2024-11-28 12:00:00,0.03348666802048683
2024-11-28 13:00:00,0.032855287194252014
2024-11-28 14:00:00,0.03245900571346283
2024-11-28 15:00:00,0.03204725310206413
2024-11-28 16:00:00,0.03217790648341179
2024-11-28 17:00:00,0.03204390034079552
2024-11-28 18:00:00,0.03122073784470558
2024-11-28 19:00:00,0.031451959162950516
2024-11-28 20:00:00,0.03191167861223221
2024-11-28 21:00:00,0.032839663326740265
2024-11-28 22:00:00,0.03375231474637985
2024-11-28 23:00:00,0.034343209117650986
2024-11-29 00:00:00,0.03450337052345276
2024-11-29 01:00:00,0.035845834761857986
2024-11-29 02:00:00,0.03636328503489494
2024-11-29 03:00:00,0.03670109435915947
2024-11-29 04:00:00,0.03656484931707382
2024-11-29 05:00:00,0.03612964227795601
2024-11-29 06:00:00,0.03652665391564369
2024-11-29 07:00:00,0.03465627506375313
2024-11-29 08:00:00,0.03181063011288643
2024-11-29 09:00:00,0.03581807389855385
2024-11-29 10:00:00,0.0363292433321476
2024-11-29 11:00:00,0.036079131066799164
2024-11-29 12:00:00,0.03838057070970535
2024-11-29 13:00:00,0.037802018225193024
2024-11-29 14:00:00,0.037071049213409424
2024-11-29 15:00:00,0.037781160324811935
2024-11-29 16:00:00,0.03774329274892807
2024-11-29 17:00:00,0.04165860265493393
2024-11-29 18:00:00,0.0406356044113636
2024-11-29 19:00:00,0.04014663025736809
2024-11-29 20:00:00,0.04006478190422058
2024-11-29 21:00:00,0.03944384679198265
2024-11-29 22:00:00,0.03822598233819008
2024-11-29 23:00:00,0.03817420452833176
2024-11-30 00:00:00,0.03850063309073448
2024-11-30 01:00:00,0.03789973258972168
2024-11-30 02:00:00,0.03844877704977989
2024-11-30 03:00:00,0.037748437374830246
2024-11-30 04:00:00,0.03800956532359123
2024-11-30 05:00:00,0.037989359349012375
2024-11-30 06:00:00,0.03732176125049591
2024-11-30 07:00:00,0.03826695308089256
2024-11-30 08:00:00,0.038250621408224106
2024-11-30 09:00:00,0.03865770995616913
2024-11-30 10:00:00,0.04078708961606026
2024-11-30 11:00:00,0.04180552437901497
2024-11-30 12:00:00,0.0413767509162426
2024-11-30 13:00:00,0.04271045699715614
2024-11-30 14:00:00,0.04466330632567406
2024-11-30 15:00:00,0.04344792664051056
2024-11-30 16:00:00,0.0438714325428009
2024-11-30 17:00:00,0.044713400304317474
2024-11-30 18:00:00,0.04767647385597229
2024-11-30 19:00:00,0.047474347054958344
2024-11-30 20:00:00,0.04539597034454346
2024-11-30 21:00:00,0.04233156889677048
2024-11-30 22:00:00,0.04658132418990135
2024-11-30 23:00:00,0.0457097664475441
2024-12-01 00:00:00,0.04548471048474312
2024-12-01 01:00:00,0.046435918658971786
2024-12-01 02:00:00,0.0453861765563488
2024-12-01 03:00:00,0.0453181229531765
2024-12-01 04:00:00,0.04074447974562645
2024-12-01 05:00:00,0.040259189903736115
2024-12-01 06:00:00,0.041054125875234604
2024-12-01 07:00:00,0.041306640952825546
2024-12-01 08:00:00,0.046143077313899994
2024-12-01 09:00:00,0.046634554862976074
2024-12-01 10:00:00,0.046882759779691696
2024-12-01 11:00:00,0.041457898914813995
2024-12-01 12:00:00,0.04518482834100723
2024-12-01 13:00:00,0.044444747269153595
2024-12-01 14:00:00,0.045185983180999756
2024-12-01 15:00:00,0.04539577290415764
2024-12-01 16:00:00,0.04337644204497337
2024-12-01 17:00:00,0.044172633439302444
2024-12-01 18:00:00,0.04366352781653404
2024-12-01 19:00:00,0.045402005314826965
2024-12-01 20:00:00,0.045284971594810486
2024-12-01 21:00:00,0.04457637667655945
2024-12-01 22:00:00,0.0434102937579155
2024-12-01 23:00:00,0.04144366830587387
2024-12-02 00:00:00,0.0407879576086998
2024-12-02 01:00:00,0.04013888165354729
2024-12-02 02:00:00,0.0398712120950222
2024-12-02 03:00:00,0.04089634492993355
2024-12-02 04:00:00,0.04221266135573387
2024-12-02 05:00:00,0.04174285754561424
2024-12-02 06:00:00,0.041733141988515854
2024-12-02 07:00:00,0.04139775037765503
2024-12-02 08:00:00,0.03992881625890732
2024-12-02 09:00:00,0.039705172181129456
2024-12-02 10:00:00,0.041275687515735626
2024-12-02 11:00:00,0.043057337403297424
2024-12-02 12:00:00,0.04357805475592613
2024-12-02 13:00:00,0.043643102049827576
2024-12-02 14:00:00,0.0440128855407238
2024-12-02 15:00:00,0.04381515085697174
2024-12-02 16:00:00,0.04490135982632637
2024-12-02 17:00:00,0.04735217243432999
2024-12-02 18:00:00,0.047353193163871765
2024-12-02 19:00:00,0.04818717762827873
2024-12-02 20:00:00,0.04858171567320824
2024-12-02 21:00:00,0.04914110153913498
2024-12-02 22:00:00,0.05036649852991104
2024-12-02 23:00:00,0.050666362047195435
2024-12-03 00:00:00,0.048853788524866104
2024-12-03 01:00:00,0.04707231745123863
2024-12-03 02:00:00,0.04636581614613533
2024-12-03 03:00:00,0.048615314066410065
2024-12-03 04:00:00,0.050039105117321014
2024-12-03 05:00:00,0.05025940760970116
2024-12-03 06:00:00,0.05152573063969612
2024-12-03 07:00:00,0.05284963548183441
2024-12-03 08:00:00,0.05364039167761803
2024-12-03 09:00:00,0.055168088525533676
2024-12-03 10:00:00,0.05502929538488388
2024-12-03 11:00:00,0.0565686970949173
2024-12-03 12:00:00,0.060104042291641235
2024-12-03 13:00:00,0.054756760597229004
2024-12-03 14:00:00,0.0575665719807148
2024-12-03 15:00:00,0.05424213409423828
2024-12-03 16:00:00,0.051238395273685455
2024-12-03 17:00:00,0.05885978788137436
2024-12-03 18:00:00,0.05820900574326515
2024-12-03 19:00:00,0.05520671233534813
2024-12-03 20:00:00,0.04896286875009537
2024-12-03 21:00:00,0.05530679225921631
2024-12-03 22:00:00,0.05375773459672928
2024-12-03 23:00:00,0.05251428857445717
2024-12-04 00:00:00,0.05444015562534332
2024-12-04 01:00:00,0.0532914362847805
2024-12-04 02:00:00,0.05266241356730461
2024-12-04 03:00:00,0.05183244124054909
2024-12-04 04:00:00,0.05122042074799538
2024-12-04 05:00:00,0.04917174205183983
2024-12-04 06:00:00,0.049015045166015625
2024-12-04 07:00:00,0.04919632524251938
2024-12-04 08:00:00,0.051053792238235474
2024-12-04 09:00:00,0.05259789153933525
2024-12-04 10:00:00,0.056941404938697815
2024-12-04 11:00:00,0.057270947843790054
2024-12-04 12:00:00,0.0553087517619133
2024-12-04 13:00:00,0.054338134825229645
2024-12-04 14:00:00,0.053322337567806244
2024-12-04 15:00:00,0.05336274206638336
2024-12-04 16:00:00,0.05368475988507271
2024-12-04 17:00:00,0.05123842880129814
2024-12-04 18:00:00,0.05023930221796036
2024-12-04 19:00:00,0.05011041834950447
2024-12-04 20:00:00,0.05232296884059906
2024-12-04 21:00:00,0.051731325685977936
2024-12-04 22:00:00,0.051269564777612686
2024-12-04 23:00:00,0.05103596672415733
2024-12-05 00:00:00,0.05179402977228165
2024-12-05 01:00:00,0.051765915006399155
2024-12-05 02:00:00,0.0510462149977684
2024-12-05 03:00:00,0.05096130445599556
2024-12-05 04:00:00,0.05025332421064377
2024-12-05 05:00:00,0.05118183791637421
2024-12-05 06:00:00,0.050390467047691345
2024-12-05 07:00:00,0.050429608672857285
2024-12-05 08:00:00,0.050110626965761185
2024-12-05 09:00:00,0.04590771719813347
2024-12-05 10:00:00,0.04831571504473686
2024-12-05 11:00:00,0.048942990601062775
2024-12-05 12:00:00,0.04579060897231102
2024-12-05 13:00:00,0.04593352600932121
2024-12-05 14:00:00,0.048238541930913925
2024-12-05 15:00:00,0.047635745257139206
2024-12-05 16:00:00,0.045768093317747116
2024-12-05 17:00:00,0.04442567750811577
2024-12-05 18:00:00,0.043586261570453644
2024-12-05 19:00:00,0.04434223845601082
2024-12-05 20:00:00,0.04480655491352081
2024-12-05 21:00:00,0.045159466564655304
2024-12-05 22:00:00,0.04747758433222771
2024-12-05 23:00:00,0.045863013714551926
2024-12-06 00:00:00,0.04563625901937485
2024-12-06 01:00:00,0.045666053891181946
2024-12-06 02:00:00,0.04567970708012581
2024-12-06 03:00:00,0.04498978331685066
2024-12-06 04:00:00,0.04508835822343826
2024-12-06 05:00:00,0.043995361775159836
2024-12-06 06:00:00,0.04298356547951698
2024-12-06 07:00:00,0.04230806976556778
2024-12-06 08:00:00,0.042262908071279526
2024-12-06 09:00:00,0.04147537425160408
2024-12-06 10:00:00,0.041253723204135895
2024-12-06 11:00:00,0.04184552654623985
2024-12-06 12:00:00,0.0427517369389534
2024-12-06 13:00:00,0.04222596064209938
2024-12-06 14:00:00,0.04419652372598648
2024-12-06 15:00:00,0.04630665481090546
2024-12-06 16:00:00,0.04236416891217232
2024-12-06 17:00:00,0.04151933640241623
2024-12-06 18:00:00,0.044750746339559555
2024-12-06 19:00:00,0.043488338589668274
2024-12-06 20:00:00,0.04259087145328522
2024-12-06 21:00:00,0.04346473142504692
2024-12-06 22:00:00,0.04326937720179558
2024-12-06 23:00:00,0.044028788805007935
2024-12-07 00:00:00,0.04643914848566055
2024-12-07 01:00:00,0.05061693489551544
2024-12-07 02:00:00,0.05302097648382187
2024-12-07 03:00:00,0.05394419655203819
2024-12-07 04:00:00,0.06241627782583237
2024-12-07 05:00:00,0.05466045066714287
2024-12-07 06:00:00,0.054743632674217224
2024-12-07 07:00:00,0.050460223108530045
2024-12-07 08:00:00,0.05035821720957756
2024-12-07 09:00:00,0.050466492772102356
2024-12-07 10:00:00,0.0519014373421669
2024-12-07 11:00:00,0.054388873279094696
2024-12-07 12:00:00,0.053355082869529724
2024-12-07 13:00:00,0.05246720090508461
2024-12-07 14:00:00,0.05244032293558121
2024-12-07 15:00:00,0.05061144754290581
2024-12-07 16:00:00,0.05228177830576897
2024-12-07 17:00:00,0.05163460224866867
2024-12-07 18:00:00,0.0506078340113163
2024-12-07 19:00:00,0.051083602011203766
2024-12-07 20:00:00,0.0506436862051487
2024-12-07 21:00:00,0.050337329506874084
2024-12-07 22:00:00,0.052480824291706085
2024-12-07 23:00:00,0.05328973010182381
2024-12-08 00:00:00,0.05497729033231735
2024-12-08 01:00:00,0.05473301187157631
2024-12-08 02:00:00,0.05332724750041962
2024-12-08 03:00:00,0.050267454236745834
2024-12-08 04:00:00,0.048850350081920624
2024-12-08 05:00:00,0.04741724580526352
2024-12-08 06:00:00,0.047454528510570526
2024-12-08 07:00:00,0.04799086973071098
2024-12-08 08:00:00,0.048464562743902206
2024-12-08 09:00:00,0.04818231239914894
2024-12-08 10:00:00,0.04790192469954491
2024-12-08 11:00:00,0.04876980558037758
2024-12-08 12:00:00,0.04866744205355644
2024-12-08 13:00:00,0.0507173053920269
2024-12-08 14:00:00,0.05117647349834442
2024-12-08 15:00:00,0.05122964084148407
2024-12-08 16:00:00,0.057294074445962906
2024-12-08 17:00:00,0.05693860724568367
2024-12-08 18:00:00,0.05817016586661339
2024-12-08 19:00:00,0.05737237632274628
2024-12-08 20:00:00,0.056057415902614594
2024-12-08 21:00:00,0.05577712133526802
2024-12-08 22:00:00,0.05622491613030434
2024-12-08 23:00:00,0.05831215903162956
2024-12-09 00:00:00,0.058365680277347565
2024-12-09 01:00:00,0.05810646712779999
2024-12-09 02:00:00,0.05808696523308754
2024-12-09 03:00:00,0.05798936262726784
2024-12-09 04:00:00,0.057918254286050797
2024-12-09 05:00:00,0.057711802423000336
2024-12-09 06:00:00,0.05844476446509361
2024-12-09 07:00:00,0.05546790361404419
2024-12-09 08:00:00,0.0541699156165123
2024-12-09 09:00:00,0.04668563976883888
2024-12-09 10:00:00,0.049654293805360794
2024-12-09 11:00:00,0.050334811210632324
2024-12-09 12:00:00,0.04992010444402695
2024-12-09 13:00:00,0.050309594720602036
2024-12-09 14:00:00,0.04991118237376213
2024-12-09 15:00:00,0.049901604652404785
2024-12-09 16:00:00,0.05366380512714386
2024-12-09 17:00:00,0.053493428975343704
2024-12-09 18:00:00,0.051919788122177124
2024-12-09 19:00:00,0.052322376519441605
2024-12-09 20:00:00,0.05012442171573639
2024-12-09 21:00:00,0.049898143857717514
2024-12-09 22:00:00,0.04717482253909111
2024-12-09 23:00:00,0.047976549714803696
2024-12-10 00:00:00,0.04974338412284851
2024-12-10 01:00:00,0.05019250139594078
2024-12-10 02:00:00,0.05010635033249855
2024-12-10 03:00:00,0.04586401954293251
2024-12-10 04:00:00,0.044048991054296494
2024-12-10 05:00:00,0.04360327869653702
2024-12-10 06:00:00,0.04746999219059944
2024-12-10 07:00:00,0.048789482563734055
2024-12-10 08:00:00,0.049489084631204605
2024-12-10 09:00:00,0.05057906359434128
2024-12-10 10:00:00,0.052468523383140564
2024-12-10 11:00:00,0.054393596947193146
2024-12-10 12:00:00,0.051546670496463776
2024-12-10 13:00:00,0.05487033724784851
2024-12-10 14:00:00,0.05356541648507118
2024-12-10 15:00:00,0.05020750313997269
2024-12-10 16:00:00,0.04798606410622597
2024-12-10 17:00:00,0.05088922381401062
2024-12-10 18:00:00,0.0505681186914444
2024-12-10 19:00:00,0.05106740817427635
2024-12-10 20:00:00,0.05029923841357231
2024-12-10 21:00:00,0.05064822733402252
2024-12-10 22:00:00,0.05161208286881447
2024-12-10 23:00:00,0.05312994495034218
2024-12-11 00:00:00,0.05291768163442612
2024-12-11 01:00:00,0.05264313519001007
2024-12-11 02:00:00,0.052671659737825394
2024-12-11 03:00:00,0.05342702567577362
2024-12-11 04:00:00,0.05355721712112427
2024-12-11 05:00:00,0.052946239709854126
2024-12-11 06:00:00,0.05278882756829262
2024-12-11 07:00:00,0.05304522067308426
2024-12-11 08:00:00,0.05337376892566681
2024-12-11 09:00:00,0.0560736246407032
2024-12-11 10:00:00,0.05866973102092743
2024-12-11 11:00:00,0.06036626547574997
2024-12-11 12:00:00,0.060806818306446075
2024-12-11 13:00:00,0.05701131001114845
2024-12-11 14:00:00,0.06023942306637764
2024-12-11 15:00:00,0.060604557394981384
2024-12-11 16:00:00,0.05949302390217781
2024-12-11 17:00:00,0.05732502415776253
2024-12-11 18:00:00,0.05330124869942665
2024-12-11 19:00:00,0.05502898991107941
2024-12-11 20:00:00,0.05777614191174507
2024-12-11 21:00:00,0.05861476808786392
2024-12-11 22:00:00,0.05944535508751869
2024-12-11 23:00:00,0.060645803809165955
2024-12-12 00:00:00,0.059506773948669434
2024-12-12 01:00:00,0.060060810297727585
2024-12-12 02:00:00,0.06233024597167969
2024-12-12 03:00:00,0.06209924444556236
2024-12-12 04:00:00,0.06172627955675125
2024-12-12 05:00:00,0.0622498020529747
2024-12-12 06:00:00,0.06052415072917938
2024-12-12 07:00:00,0.05972176417708397
2024-12-12 08:00:00,0.059856195002794266
2024-12-12 09:00:00,0.06106599047780037
2024-12-12 10:00:00,0.059265632182359695
2024-12-12 11:00:00,0.057968709617853165
2024-12-12 12:00:00,0.05719682201743126
2024-12-12 13:00:00,0.05613596364855766
2024-12-12 14:00:00,0.056034594774246216
