timestamp,price_usd
2024-11-05 11:00:00,0.011112196370959282
2024-11-05 12:00:00,0.011327870190143585
2024-11-05 13:00:00,0.0113132419064641
2024-11-05 14:00:00,0.01132854726165533
2024-11-05 15:00:00,0.011294404976069927
2024-11-05 16:00:00,0.011263792403042316
2024-11-05 17:00:00,0.011196610517799854
2024-11-05 18:00:00,0.011184263974428177
2024-11-05 19:00:00,0.01103188470005989
2024-11-05 20:00:00,0.011255953460931778
2024-11-05 21:00:00,0.01120925135910511
2024-11-05 22:00:00,0.011195504106581211
2024-11-05 23:00:00,0.01122087799012661
2024-11-06 00:00:00,0.011285093612968922
2024-11-06 01:00:00,0.011301831342279911
2024-11-06 02:00:00,0.01135200634598732
2024-11-06 03:00:00,0.011172587051987648
2024-11-06 04:00:00,0.01130719855427742
2024-11-06 05:00:00,0.011280247941613197
2024-11-06 06:00:00,0.01131486427038908
2024-11-06 07:00:00,0.011257687583565712
2024-11-06 08:00:00,0.011237765662372112
2024-11-06 09:00:00,0.011172344908118248
2024-11-06 10:00:00,0.011173377744853497
2024-11-06 11:00:00,0.01116202212870121
2024-11-06 12:00:00,0.011166691780090332
2024-11-06 13:00:00,0.011095312424004078
2024-11-06 14:00:00,0.01120189018547535
2024-11-06 15:00:00,0.01111410278826952
2024-11-06 16:00:00,0.011111333966255188
2024-11-06 17:00:00,0.011619705706834793
2024-11-06 18:00:00,0.011528918519616127
2024-11-06 19:00:00,0.011434527114033699
2024-11-06 20:00:00,0.01158234104514122
2024-11-06 21:00:00,0.011942598037421703
2024-11-06 22:00:00,0.011935163289308548
2024-11-06 23:00:00,0.011896338313817978
2024-11-07 00:00:00,0.011824353598058224
2024-11-07 01:00:00,0.011951464228332043
2024-11-07 02:00:00,0.012027829885482788
2024-11-07 03:00:00,0.012080580927431583
2024-11-07 04:00:00,0.01211513951420784
2024-11-07 05:00:00,0.012139811180531979
2024-11-07 06:00:00,0.013159806840121746
2024-11-07 07:00:00,0.013044317252933979
2024-11-07 08:00:00,0.012632378377020359
2024-11-07 09:00:00,0.012796868570148945
2024-11-07 10:00:00,0.01266537606716156
2024-11-07 11:00:00,0.012793091125786304
2024-11-07 12:00:00,0.013058804906904697
2024-11-07 13:00:00,0.013061033561825752
2024-11-07 14:00:00,0.013063606806099415
2024-11-07 15:00:00,0.01326416153460741
2024-11-07 16:00:00,0.013311849907040596
2024-11-07 17:00:00,0.013263379223644733
2024-11-07 18:00:00,0.01309153251349926
2024-11-07 19:00:00,0.013002078980207443
2024-11-07 20:00:00,0.013145830482244492
2024-11-07 21:00:00,0.013410862535238266
2024-11-07 22:00:00,0.013627264648675919
2024-11-07 23:00:00,0.013486139476299286
2024-11-08 00:00:00,0.013486779294908047
2024-11-08 01:00:00,0.013426216319203377
2024-11-08 02:00:00,0.013457294553518295
2024-11-08 03:00:00,0.013468798249959946
2024-11-08 04:00:00,0.01346514467149973
2024-11-08 05:00:00,0.013769811019301414
2024-11-08 06:00:00,0.013885844498872757
2024-11-08 07:00:00,0.013968627899885178
2024-11-08 08:00:00,0.013950136490166187
2024-11-08 09:00:00,0.014634435065090656
2024-11-08 10:00:00,0.014389961957931519
2024-11-08 11:00:00,0.014546944759786129
2024-11-08 12:00:00,0.014505455270409584
2024-11-08 13:00:00,0.014339633285999298
2024-11-08 14:00:00,0.0144862225279212
2024-11-08 15:00:00,0.015183350071310997
2024-11-08 16:00:00,0.014595943503081799
2024-11-08 17:00:00,0.014378530904650688
2024-11-08 18:00:00,0.014353177510201931
2024-11-08 19:00:00,0.014394515193998814
2024-11-08 20:00:00,0.014436053112149239
2024-11-08 21:00:00,0.014298171736299992
2024-11-08 22:00:00,0.014364690519869328
2024-11-08 23:00:00,0.01455649547278881
2024-11-09 00:00:00,0.014534175395965576
2024-11-09 01:00:00,0.014760446734726429
2024-11-09 02:00:00,0.015656234696507454
2024-11-09 03:00:00,0.0155405905097723
2024-11-09 04:00:00,0.016132067888975143
2024-11-09 05:00:00,0.016181858256459236
2024-11-09 06:00:00,0.01643480360507965
2024-11-09 07:00:00,0.016777340322732925
2024-11-09 08:00:00,0.01710302196443081
2024-11-09 09:00:00,0.017207300290465355
2024-11-09 10:00:00,0.016952479258179665
2024-11-09 11:00:00,0.01758389361202717
2024-11-09 12:00:00,0.017929131165146828
2024-11-09 13:00:00,0.01887143775820732
2024-11-09 14:00:00,0.01886020414531231
2024-11-09 15:00:00,0.018997592851519585
2024-11-09 16:00:00,0.018977174535393715
2024-11-09 17:00:00,0.019094329327344894
2024-11-09 18:00:00,0.018998317420482635
2024-11-09 19:00:00,0.01828335039317608
2024-11-09 20:00:00,0.01870635710656643
2024-11-09 21:00:00,0.019059889018535614
2024-11-09 22:00:00,0.01947166584432125
2024-11-09 23:00:00,0.02075999043881893
2024-11-10 00:00:00,0.019896307960152626
2024-11-10 01:00:00,0.01985103078186512
2024-11-10 02:00:00,0.02004595287144184
2024-11-10 03:00:00,0.019938578829169273
2024-11-10 04:00:00,0.020375987514853477
2024-11-10 05:00:00,0.020746100693941116
2024-11-10 06:00:00,0.021177690476179123
2024-11-10 07:00:00,0.0230926014482975
2024-11-10 08:00:00,0.022221317514777184
2024-11-10 09:00:00,0.022568771615624428
2024-11-10 10:00:00,0.022955602034926414
2024-11-10 11:00:00,0.02199811115860939
2024-11-10 12:00:00,0.02200525812804699
2024-11-10 13:00:00,0.022144077345728874
2024-11-10 14:00:00,0.02198440209031105
2024-11-10 15:00:00,0.021189650520682335
2024-11-10 16:00:00,0.02128630131483078
2024-11-10 17:00:00,0.02095254696905613
2024-11-10 18:00:00,0.02119486965239048
2024-11-10 19:00:00,0.020997075363993645
2024-11-10 20:00:00,0.020804712548851967
2024-11-10 21:00:00,0.021196164190769196
2024-11-10 22:00:00,0.021481122821569443
2024-11-10 23:00:00,0.021220466122031212
2024-11-11 00:00:00,0.021336495876312256
2024-11-11 01:00:00,0.021614307537674904
2024-11-11 02:00:00,0.022477440536022186
2024-11-11 03:00:00,0.02244238555431366
2024-11-11 04:00:00,0.022515466436743736
2024-11-11 05:00:00,0.022502919659018517
2024-11-11 06:00:00,0.02207629196345806
2024-11-11 07:00:00,0.02125227451324463
2024-11-11 08:00:00,0.021300800144672394
2024-11-11 09:00:00,0.02092215232551098
2024-11-11 10:00:00,0.020704656839370728
2024-11-11 11:00:00,0.020394133403897285
2024-11-11 12:00:00,0.018847405910491943
2024-11-11 13:00:00,0.018289195373654366
2024-11-11 14:00:00,0.01840466819703579
2024-11-11 15:00:00,0.018078457564115524
2024-11-11 16:00:00,0.018626652657985687
2024-11-11 17:00:00,0.01846013404428959
2024-11-11 18:00:00,0.018740247935056686
2024-11-11 19:00:00,0.017982373014092445
2024-11-11 20:00:00,0.018429532647132874
2024-11-11 21:00:00,0.01874566078186035
2024-11-11 22:00:00,0.01909097656607628
2024-11-11 23:00:00,0.018781481310725212
2024-11-12 00:00:00,0.018652550876140594
2024-11-12 01:00:00,0.01844671182334423
2024-11-12 02:00:00,0.019563261419534683
2024-11-12 03:00:00,0.019743287935853004
2024-11-12 04:00:00,0.019876932725310326
2024-11-12 05:00:00,0.01975982077419758
2024-11-12 06:00:00,0.01977609097957611
2024-11-12 07:00:00,0.020002618432044983
2024-11-12 08:00:00,0.020140618085861206
2024-11-12 09:00:00,0.02044505625963211
2024-11-12 10:00:00,0.020448148250579834
2024-11-12 11:00:00,0.019987108185887337
2024-11-12 12:00:00,0.0194096677005291
2024-11-12 13:00:00,0.018422724679112434
2024-11-12 14:00:00,0.018272774294018745
2024-11-12 15:00:00,0.018033502623438835
2024-11-12 16:00:00,0.017410513013601303
2024-11-12 17:00:00,0.017561446875333786
2024-11-12 18:00:00,0.017720282077789307
2024-11-12 19:00:00,0.01753733679652214
2024-11-12 20:00:00,0.017162317410111427
2024-11-12 21:00:00,0.017409659922122955
2024-11-12 22:00:00,0.01717158406972885
2024-11-12 23:00:00,0.017191847786307335
2024-11-13 00:00:00,0.017518576234579086
2024-11-13 01:00:00,0.01793508045375347
2024-11-13 02:00:00,0.018008289858698845
2024-11-13 03:00:00,0.017886104062199593
2024-11-13 04:00:00,0.01794043369591236
2024-11-13 05:00:00,0.01781417988240719
2024-11-13 06:00:00,0.017492953687906265
2024-11-13 07:00:00,0.017538048326969147
2024-11-13 08:00:00,0.016667846590280533
2024-11-13 09:00:00,0.016563622280955315
2024-11-13 10:00:00,0.016250846907496452
2024-11-13 11:00:00,0.016196485608816147
2024-11-13 12:00:00,0.01628137193620205
2024-11-13 13:00:00,0.01635645143687725
2024-11-13 14:00:00,0.016791367903351784
2024-11-13 15:00:00,0.01719657890498638
2024-11-13 16:00:00,0.017961746081709862
2024-11-13 17:00:00,0.017769701778888702
2024-11-13 18:00:00,0.018378108739852905
2024-11-13 19:00:00,0.018548253923654556
2024-11-13 20:00:00,0.01766163483262062
2024-11-13 21:00:00,0.01710023358464241
2024-11-13 22:00:00,0.017075683921575546
2024-11-13 23:00:00,0.016874775290489197
2024-11-14 00:00:00,0.016493823379278183
2024-11-14 01:00:00,0.016444163396954536
2024-11-14 02:00:00,0.015476313419640064
2024-11-14 03:00:00,0.015439939685165882
2024-11-14 04:00:00,0.015806742012500763
2024-11-14 05:00:00,0.01563446596264839
2024-11-14 06:00:00,0.015779849141836166
2024-11-14 07:00:00,0.015946220606565475
2024-11-14 08:00:00,0.015525233931839466
2024-11-14 09:00:00,0.015262246131896973
2024-11-14 10:00:00,0.015583529137074947
2024-11-14 11:00:00,0.01570230722427368
2024-11-14 12:00:00,0.01550125889480114
2024-11-14 13:00:00,0.015444030053913593
2024-11-14 14:00:00,0.015252223238348961
2024-11-14 15:00:00,0.015102386474609375
2024-11-14 16:00:00,0.014691992662847042
2024-11-14 17:00:00,0.0147511912509799
2024-11-14 18:00:00,0.014833633787930012
2024-11-14 19:00:00,0.014777054078876972
2024-11-14 20:00:00,0.014724482782185078
2024-11-14 21:00:00,0.014954936690628529
2024-11-14 22:00:00,0.015259410254657269
2024-11-14 23:00:00,0.01537264883518219
2024-11-15 00:00:00,0.015316725708544254
2024-11-15 01:00:00,0.01500086858868599
2024-11-15 02:00:00,0.014855295419692993
2024-11-15 03:00:00,0.015063626691699028
2024-11-15 04:00:00,0.015079704113304615
2024-11-15 05:00:00,0.01506089698523283
2024-11-15 06:00:00,0.015257188118994236
2024-11-15 07:00:00,0.015049684792757034
2024-11-15 08:00:00,0.015200010500848293
2024-11-15 09:00:00,0.015274743549525738
2024-11-15 10:00:00,0.015314316377043724
2024-11-15 11:00:00,0.015300143510103226
2024-11-15 12:00:00,0.01586119644343853
2024-11-15 13:00:00,0.01628393679857254
2024-11-15 14:00:00,0.016334371641278267
2024-11-15 15:00:00,0.015862321481108665
2024-11-15 16:00:00,0.01612904481589794
2024-11-15 17:00:00,0.016015810891985893
2024-11-15 18:00:00,0.016525687649846077
2024-11-15 19:00:00,0.016679150983691216
2024-11-15 20:00:00,0.016839804127812386
2024-11-15 21:00:00,0.016549810767173767
2024-11-15 22:00:00,0.017038661986589432
2024-11-15 23:00:00,0.01740918681025505
2024-11-16 00:00:00,0.01792559027671814
2024-11-16 01:00:00,0.017432142049074173
2024-11-16 02:00:00,0.017475340515375137
2024-11-16 03:00:00,0.017314381897449493
2024-11-16 04:00:00,0.017333127558231354
2024-11-16 05:00:00,0.01757766120135784
2024-11-16 06:00:00,0.01758018136024475
2024-11-16 07:00:00,0.017660921439528465
2024-11-16 08:00:00,0.01766519621014595
2024-11-16 09:00:00,0.017721936106681824
2024-11-16 10:00:00,0.01762085035443306
2024-11-16 11:00:00,0.01762308180332184
2024-11-16 12:00:00,0.017707839608192444
2024-11-16 13:00:00,0.017829230055212975
2024-11-16 14:00:00,0.0180378295481205
2024-11-16 15:00:00,0.017923815175890923
2024-11-16 16:00:00,0.01762612722814083
2024-11-16 17:00:00,0.017732474952936172
2024-11-16 18:00:00,0.017958786338567734
2024-11-16 19:00:00,0.018045272678136826
2024-11-16 20:00:00,0.017820419743657112
2024-11-16 21:00:00,0.017848467454314232
2024-11-16 22:00:00,0.01783324033021927
2024-11-16 23:00:00,0.017001166939735413
2024-11-17 00:00:00,0.017091508954763412
2024-11-17 01:00:00,0.017077084630727768
2024-11-17 02:00:00,0.016728416085243225
2024-11-17 03:00:00,0.016697656363248825
2024-11-17 04:00:00,0.017762761563062668
2024-11-17 05:00:00,0.01775037869811058
2024-11-17 06:00:00,0.017322484403848648
2024-11-17 07:00:00,0.01736515574157238
2024-11-17 08:00:00,0.017385020852088928
2024-11-17 09:00:00,0.017440643161535263
2024-11-17 10:00:00,0.017406554892659187
2024-11-17 11:00:00,0.01733526401221752
2024-11-17 12:00:00,0.01725473441183567
2024-11-17 13:00:00,0.01711561717092991
2024-11-17 14:00:00,0.01733025722205639
2024-11-17 15:00:00,0.01731688529253006
2024-11-17 16:00:00,0.017364460974931717
2024-11-17 17:00:00,0.017441540956497192
2024-11-17 18:00:00,0.0174082200974226
2024-11-17 19:00:00,0.017269399017095566
2024-11-17 20:00:00,0.01728065498173237
2024-11-17 21:00:00,0.017322057858109474
2024-11-17 22:00:00,0.016538189724087715
2024-11-17 23:00:00,0.016518672928214073
2024-11-18 00:00:00,0.01652374118566513
2024-11-18 01:00:00,0.01573222689330578
2024-11-18 02:00:00,0.01556809525936842
2024-11-18 03:00:00,0.015470840036869049
2024-11-18 04:00:00,0.015354910865426064
2024-11-18 05:00:00,0.015419398434460163
2024-11-18 06:00:00,0.015495572239160538
2024-11-18 07:00:00,0.01549624279141426
2024-11-18 08:00:00,0.015743402764201164
2024-11-18 09:00:00,0.01615622639656067
2024-11-18 10:00:00,0.01630949042737484
2024-11-18 11:00:00,0.016038663685321808
2024-11-18 12:00:00,0.016109449788928032
2024-11-18 13:00:00,0.016244636848568916
2024-11-18 14:00:00,0.016330936923623085
2024-11-18 15:00:00,0.01634511910378933
2024-11-18 16:00:00,0.01624593883752823
2024-11-18 17:00:00,0.016174370422959328
2024-11-18 18:00:00,0.016148481518030167
2024-11-18 19:00:00,0.01618354581296444
2024-11-18 20:00:00,0.016196878626942635
2024-11-18 21:00:00,0.01606740988790989
2024-11-18 22:00:00,0.01558758970350027
2024-11-18 23:00:00,0.01554030366241932
2024-11-19 00:00:00,0.015568586066365242
2024-11-19 01:00:00,0.01542384922504425
2024-11-19 02:00:00,0.015752222388982773
2024-11-19 03:00:00,0.015883376821875572
2024-11-19 04:00:00,0.014492279849946499
2024-11-19 05:00:00,0.014297429472208023
2024-11-19 06:00:00,0.014270774088799953
2024-11-19 07:00:00,0.014415756799280643
2024-11-19 08:00:00,0.014355549588799477
2024-11-19 09:00:00,0.014440095983445644
2024-11-19 10:00:00,0.014307656325399876
2024-11-19 11:00:00,0.014359243214130402
2024-11-19 12:00:00,0.014499262906610966
2024-11-19 13:00:00,0.01457885466516018
2024-11-19 14:00:00,0.014663089998066425
2024-11-19 15:00:00,0.014731766656041145
2024-11-19 16:00:00,0.014853917062282562
2024-11-19 17:00:00,0.015303663909435272
2024-11-19 18:00:00,0.015466375276446342
2024-11-19 19:00:00,0.015343068167567253
2024-11-19 20:00:00,0.015285026282072067
2024-11-19 21:00:00,0.015701118856668472
2024-11-19 22:00:00,0.015658318996429443
2024-11-19 23:00:00,0.01563224010169506
2024-11-20 00:00:00,0.015897581353783607
2024-11-20 01:00:00,0.015815310180187225
2024-11-20 02:00:00,0.015835078433156013
2024-11-20 03:00:00,0.015888426452875137
2024-11-20 04:00:00,0.01578681170940399
2024-11-20 05:00:00,0.01575327478349209
2024-11-20 06:00:00,0.01756312884390354
2024-11-20 07:00:00,0.016887620091438293
2024-11-20 08:00:00,0.016575485467910767
2024-11-20 09:00:00,0.01617676578462124
2024-11-20 10:00:00,0.016070624813437462
2024-11-20 11:00:00,0.01634826324880123
2024-11-20 12:00:00,0.016028810292482376
2024-11-20 13:00:00,0.016888141632080078
2024-11-20 14:00:00,0.016943935304880142
2024-11-20 15:00:00,0.017029793933033943
2024-11-20 16:00:00,0.017115958034992218
2024-11-20 17:00:00,0.017253328114748
2024-11-20 18:00:00,0.016948603093624115
2024-11-20 19:00:00,0.015819627791643143
2024-11-20 20:00:00,0.015817219391465187
2024-11-20 21:00:00,0.016093743965029716
2024-11-20 22:00:00,0.016071835532784462
2024-11-20 23:00:00,0.01594267413020134
2024-11-21 00:00:00,0.01602170057594776
2024-11-21 01:00:00,0.01608777977526188
2024-11-21 02:00:00,0.016021467745304108
2024-11-21 03:00:00,0.016050884500145912
2024-11-21 04:00:00,0.016230085864663124
2024-11-21 05:00:00,0.016361510381102562
2024-11-21 06:00:00,0.016281764954328537
2024-11-21 07:00:00,0.01568281278014183
2024-11-21 08:00:00,0.01571989618241787
2024-11-21 09:00:00,0.01627998612821102
2024-11-21 10:00:00,0.01592748984694481
2024-11-21 11:00:00,0.015850670635700226
2024-11-21 12:00:00,0.016066323965787888
2024-11-21 13:00:00,0.016176830977201462
2024-11-21 14:00:00,0.01625272072851658
2024-11-21 15:00:00,0.015903765335679054
2024-11-21 16:00:00,0.01603006012737751
2024-11-21 17:00:00,0.01606840267777443
2024-11-21 18:00:00,0.016054343432188034
2024-11-21 19:00:00,0.016225185245275497
2024-11-21 20:00:00,0.015886278823018074
2024-11-21 21:00:00,0.016041889786720276
2024-11-21 22:00:00,0.016503170132637024
2024-11-21 23:00:00,0.01657653972506523
2024-11-22 00:00:00,0.01667022332549095
2024-11-22 01:00:00,0.016224971041083336
2024-11-22 02:00:00,0.016230354085564613
2024-11-22 03:00:00,0.01625417172908783
2024-11-22 04:00:00,0.01721884310245514
2024-11-22 05:00:00,0.0173210296779871
2024-11-22 06:00:00,0.017148153856396675
2024-11-22 07:00:00,0.017181552946567535
2024-11-22 08:00:00,0.017256207764148712
2024-11-22 09:00:00,0.017162004485726357
2024-11-22 10:00:00,0.016858909279108047
2024-11-22 11:00:00,0.016870971769094467
2024-11-22 12:00:00,0.016814537346363068
2024-11-22 13:00:00,0.019662683829665184
2024-11-22 14:00:00,0.019845159724354744
2024-11-22 15:00:00,0.018809383735060692
2024-11-22 16:00:00,0.019096722826361656
2024-11-22 17:00:00,0.019192064180970192
2024-11-22 18:00:00,0.01851038634777069
2024-11-22 19:00:00,0.01813497394323349
2024-11-22 20:00:00,0.018244754523038864
2024-11-22 21:00:00,0.018913080915808678
2024-11-22 22:00:00,0.018598660826683044
2024-11-22 23:00:00,0.018528657034039497
2024-11-23 00:00:00,0.018158365041017532
2024-11-23 01:00:00,0.017560696229338646
2024-11-23 02:00:00,0.01720319502055645
2024-11-23 03:00:00,0.017225956544280052
2024-11-23 04:00:00,0.017309661954641342
2024-11-23 05:00:00,0.017374534159898758
2024-11-23 06:00:00,0.016921961680054665
2024-11-23 07:00:00,0.017782418057322502
2024-11-23 08:00:00,0.019363626837730408
2024-11-23 09:00:00,0.0191247146576643
2024-11-23 10:00:00,0.01900758035480976
2024-11-23 11:00:00,0.019347496330738068
2024-11-23 12:00:00,0.01917097344994545
2024-11-23 13:00:00,0.019352663308382034
2024-11-23 14:00:00,0.019355682656168938
2024-11-23 15:00:00,0.019449995830655098
2024-11-23 16:00:00,0.01852927915751934
2024-11-23 17:00:00,0.018648140132427216
2024-11-23 18:00:00,0.018609201535582542
2024-11-23 19:00:00,0.01887846365571022
2024-11-23 20:00:00,0.019721703603863716
2024-11-23 21:00:00,0.02018742635846138
2024-11-23 22:00:00,0.020471548661589622
2024-11-23 23:00:00,0.022306928411126137
2024-11-24 00:00:00,0.02248959243297577
2024-11-24 01:00:00,0.021527495235204697
2024-11-24 02:00:00,0.020855775102972984
2024-11-24 03:00:00,0.020962180569767952
2024-11-24 04:00:00,0.020917145535349846
2024-11-24 05:00:00,0.021037496626377106
2024-11-24 06:00:00,0.02129065990447998
2024-11-24 07:00:00,0.02119850553572178
2024-11-24 08:00:00,0.02146787755191326
2024-11-24 09:00:00,0.02136833593249321
2024-11-24 10:00:00,0.021498579531908035
2024-11-24 11:00:00,0.021257346495985985
2024-11-24 12:00:00,0.020404832437634468
2024-11-24 13:00:00,0.01995375193655491
2024-11-24 14:00:00,0.02077079750597477
2024-11-24 15:00:00,0.020676080137491226
2024-11-24 16:00:00,0.02044498175382614
2024-11-24 17:00:00,0.020333800464868546
2024-11-24 18:00:00,0.020368307828903198
2024-11-24 19:00:00,0.020233500748872757
2024-11-24 20:00:00,0.020746475085616112
2024-11-24 21:00:00,0.020753316581249237
2024-11-24 22:00:00,0.02075411006808281
2024-11-24 23:00:00,0.021045483648777008
2024-11-25 00:00:00,0.021319525316357613
2024-11-25 01:00:00,0.02114165388047695
2024-11-25 02:00:00,0.02085953764617443
2024-11-25 03:00:00,0.0208895280957222
2024-11-25 04:00:00,0.020948326215147972
2024-11-25 05:00:00,0.02106681652367115
2024-11-25 06:00:00,0.021055100485682487
2024-11-25 07:00:00,0.021014414727687836
2024-11-25 08:00:00,0.021995019167661667
2024-11-25 09:00:00,0.02273603156208992
2024-11-25 10:00:00,0.022640302777290344
2024-11-25 11:00:00,0.024506863206624985
2024-11-25 12:00:00,0.025115936994552612
2024-11-25 13:00:00,0.024613220244646072
2024-11-25 14:00:00,0.02430078387260437
2024-11-25 15:00:00,0.02632051147520542
2024-11-25 16:00:00,0.027189992368221283
2024-11-25 17:00:00,0.02768513187766075
2024-11-25 18:00:00,0.027726080268621445
2024-11-25 19:00:00,0.025881754234433174
2024-11-25 20:00:00,0.026221629232168198
2024-11-25 21:00:00,0.026854341849684715
2024-11-25 22:00:00,0.025953274220228195
2024-11-25 23:00:00,0.02542690746486187
2024-11-26 00:00:00,0.025485312566161156
2024-11-26 01:00:00,0.026411306113004684
2024-11-26 02:00:00,0.02685205452144146
2024-11-26 03:00:00,0.026824457570910454
2024-11-26 04:00:00,0.026857970282435417
2024-11-26 05:00:00,0.027102217078208923
2024-11-26 06:00:00,0.02726009301841259
2024-11-26 07:00:00,0.027692997828125954
2024-11-26 08:00:00,0.02732350490987301
2024-11-26 09:00:00,0.028532739728689194
2024-11-26 10:00:00,0.029078200459480286
2024-11-26 11:00:00,0.02571813389658928
2024-11-26 12:00:00,0.025342104956507683
2024-11-26 13:00:00,0.025496596470475197
2024-11-26 14:00:00,0.030158108100295067
2024-11-26 15:00:00,0.03262148052453995
2024-11-26 16:00:00,0.03204227611422539
2024-11-26 17:00:00,0.03298119828104973
2024-11-26 18:00:00,0.036215536296367645
2024-11-26 19:00:00,0.03358370438218117
2024-11-26 20:00:00,0.033490680158138275
2024-11-26 21:00:00,0.032732825726270676
2024-11-26 22:00:00,0.03567354008555412
2024-11-26 23:00:00,0.035632338374853134
2024-11-27 00:00:00,0.03658875450491905
2024-11-27 01:00:00,0.03561321645975113
2024-11-27 02:00:00,0.03346586227416992
2024-11-27 03:00:00,0.033295996487140656
2024-11-27 04:00:00,0.03302321210503578
2024-11-27 05:00:00,0.034154582768678665
2024-11-27 06:00:00,0.03517386317253113
2024-11-27 07:00:00,0.03548377752304077
2024-11-27 08:00:00,0.03569640964269638
2024-11-27 09:00:00,0.03462858498096466
2024-11-27 10:00:00,0.03505374863743782
2024-11-27 11:00:00,0.034991927444934845
2024-11-27 12:00:00,0.03347514569759369
2024-11-27 13:00:00,0.03304697573184967
2024-11-27 14:00:00,0.03178888186812401
2024-11-27 15:00:00,0.03466814383864403
2024-11-27 16:00:00,0.033439621329307556
2024-11-27 17:00:00,0.03386710584163666
2024-11-27 18:00:00,0.03166704997420311
2024-11-27 19:00:00,0.032221969217061996
2024-11-27 20:00:00,0.031897179782390594
2024-11-27 21:00:00,0.031451646238565445
2024-11-27 22:00:00,0.031032752245664597
2024-11-27 23:00:00,0.031022589653730392
2024-11-28 00:00:00,0.0321141816675663
2024-11-28 01:00:00,0.03244021534919739
2024-11-28 02:00:00,0.03229638561606407
2024-11-28 03:00:00,0.031688787043094635
2024-11-28 04:00:00,0.03120720572769642
2024-11-28 05:00:00,0.030681926757097244
2024-11-28 06:00:00,0.030630316585302353
2024-11-28 07:00:00,0.030313467606902122
2024-11-28 08:00:00,0.030126696452498436
2024-11-28 09:00:00,0.03124447725713253
2024-11-28 10:00:00,0.03133898600935936
2024-11-28 11:00:00,0.03168582171201706
2024-11-28 12:00:00,0.03354877233505249
2024-11-28 13:00:00,0.03283359482884407
2024-11-28 14:00:00,0.03256581351161003
2024-11-28 15:00:00,0.0319565087556839
2024-11-28 16:00:00,0.032103922218084335
2024-11-28 17:00:00,0.03205255791544914
2024-11-28 18:00:00,0.03147145360708237
2024-11-28 19:00:00,0.03151186555624008
2024-11-28 20:00:00,0.03191206231713295
2024-11-28 21:00:00,0.03265397250652313
2024-11-28 22:00:00,0.0338292196393013
2024-11-28 23:00:00,0.0343397855758667
2024-11-29 00:00:00,0.03451339155435562
2024-11-29 01:00:00,0.03582744672894478
2024-11-29 02:00:00,0.036345306783914566
2024-11-29 03:00:00,0.036672528833150864
2024-11-29 04:00:00,0.0365680530667305
2024-11-29 05:00:00,0.03613764047622681
2024-11-29 06:00:00,0.0365835577249527
2024-11-29 07:00:00,0.03450483828783035
2024-11-29 08:00:00,0.03192804381251335
2024-11-29 09:00:00,0.035825300961732864
2024-11-29 10:00:00,0.0363796204328537
2024-11-29 11:00:00,0.03620786964893341
2024-11-29 12:00:00,0.038219284266233444
2024-11-29 13:00:00,0.03780199959874153
2024-11-29 14:00:00,0.037072207778692245
2024-11-29 15:00:00,0.037767309695482254
2024-11-29 16:00:00,0.03767693415284157
2024-11-29 17:00:00,0.04123993217945099
2024-11-29 18:00:00,0.04072517901659012
2024-11-29 19:00:00,0.040234409272670746
2024-11-29 20:00:00,0.0399477519094944
2024-11-29 21:00:00,0.03929940238595009
2024-11-29 22:00:00,0.03822627291083336
2024-11-29 23:00:00,0.038173578679561615
2024-11-30 00:00:00,0.038455042988061905
2024-11-30 01:00:00,0.03786230832338333
2024-11-30 02:00:00,0.03838181123137474
2024-11-30 03:00:00,0.03775668144226074
2024-11-30 04:00:00,0.038009729236364365
2024-11-30 05:00:00,0.03798908740282059
2024-11-30 06:00:00,0.03730183467268944
2024-11-30 07:00:00,0.03819297254085541
2024-11-30 08:00:00,0.03825768828392029
2024-11-30 09:00:00,0.038657911121845245
2024-11-30 10:00:00,0.0411260612308979
2024-11-30 11:00:00,0.04180491343140602
2024-11-30 12:00:00,0.041383761912584305
2024-11-30 13:00:00,0.042762041091918945
2024-11-30 14:00:00,0.04415986314415932
2024-11-30 15:00:00,0.04337869584560394
2024-11-30 16:00:00,0.043908048421144485
2024-11-30 17:00:00,0.045481279492378235
2024-11-30 18:00:00,0.04769347235560417
2024-11-30 19:00:00,0.04748065024614334
2024-11-30 20:00:00,0.04538319259881973
2024-11-30 21:00:00,0.04235634580254555
2024-11-30 22:00:00,0.04668721184134483
2024-11-30 23:00:00,0.045710984617471695
2024-12-01 00:00:00,0.04578864201903343
2024-12-01 01:00:00,0.04643522948026657
2024-12-01 02:00:00,0.04539993777871132
2024-12-01 03:00:00,0.0453181229531765
2024-12-01 04:00:00,0.04074455052614212
2024-12-01 05:00:00,0.04017416015267372
2024-12-01 06:00:00,0.040988024324178696
2024-12-01 07:00:00,0.041139572858810425
2024-12-01 08:00:00,0.04600401595234871
2024-12-01 09:00:00,0.04673963785171509
2024-12-01 10:00:00,0.04685700312256813
2024-12-01 11:00:00,0.04237327724695206
2024-12-01 12:00:00,0.045182716101408005
2024-12-01 13:00:00,0.04435618594288826
2024-12-01 14:00:00,0.045113351196050644
2024-12-01 15:00:00,0.045138828456401825
2024-12-01 16:00:00,0.043253686279058456
2024-12-01 17:00:00,0.04424842819571495
2024-12-01 18:00:00,0.04365462809801102
2024-12-01 19:00:00,0.04530208930373192
2024-12-01 20:00:00,0.045284971594810486
2024-12-01 21:00:00,0.044324543327093124
2024-12-01 22:00:00,0.043370045721530914
2024-12-01 23:00:00,0.04143673554062843
2024-12-02 00:00:00,0.04076702520251274
2024-12-02 01:00:00,0.040067560970783234
2024-12-02 02:00:00,0.039906349033117294
2024-12-02 03:00:00,0.040896326303482056
2024-12-02 04:00:00,0.042279355227947235
2024-12-02 05:00:00,0.04195285215973854
2024-12-02 06:00:00,0.041760992258787155
2024-12-02 07:00:00,0.04141039773821831
2024-12-02 08:00:00,0.039779145270586014
2024-12-02 09:00:00,0.03971056267619133
2024-12-02 10:00:00,0.041173726320266724
2024-12-02 11:00:00,0.04345189779996872
2024-12-02 12:00:00,0.04356943443417549
2024-12-02 13:00:00,0.043779172003269196
2024-12-02 14:00:00,0.04399172589182854
2024-12-02 15:00:00,0.04351595789194107
2024-12-02 16:00:00,0.044820353388786316
2024-12-02 17:00:00,0.04720601066946983
2024-12-02 18:00:00,0.04718419164419174
2024-12-02 19:00:00,0.04817645996809006
2024-12-02 20:00:00,0.04861131310462952
2024-12-02 21:00:00,0.049111273139715195
2024-12-02 22:00:00,0.05036662518978119
2024-12-02 23:00:00,0.050578732043504715
2024-12-03 00:00:00,0.04908352717757225
2024-12-03 01:00:00,0.046936843544244766
2024-12-03 02:00:00,0.04663751274347305
2024-12-03 03:00:00,0.04883246123790741
2024-12-03 04:00:00,0.04991820454597473
2024-12-03 05:00:00,0.05053232982754707
2024-12-03 06:00:00,0.05126212537288666
2024-12-03 07:00:00,0.052849043160676956
2024-12-03 08:00:00,0.053803425282239914
2024-12-03 09:00:00,0.05526469647884369
2024-12-03 10:00:00,0.055034469813108444
2024-12-03 11:00:00,0.05658227577805519
2024-12-03 12:00:00,0.06009421870112419
2024-12-03 13:00:00,0.055486083030700684
2024-12-03 14:00:00,0.0575665719807148
2024-12-03 15:00:00,0.05379138141870499
2024-12-03 16:00:00,0.05075884237885475
2024-12-03 17:00:00,0.05892001464962959
2024-12-03 18:00:00,0.058714088052511215
2024-12-03 19:00:00,0.05559122934937477
2024-12-03 20:00:00,0.048962268978357315
2024-12-03 21:00:00,0.05493408069014549
2024-12-03 22:00:00,0.05375783517956734
2024-12-03 23:00:00,0.05247163400053978
2024-12-04 00:00:00,0.054524630308151245
2024-12-04 01:00:00,0.053161025047302246
2024-12-04 02:00:00,0.052884917706251144
2024-12-04 03:00:00,0.051919881254434586
2024-12-04 04:00:00,0.05121956020593643
2024-12-04 05:00:00,0.04915988817811012
2024-12-04 06:00:00,0.049015045166015625
2024-12-04 07:00:00,0.04930390790104866
2024-12-04 08:00:00,0.05034080520272255
2024-12-04 09:00:00,0.05262218415737152
2024-12-04 10:00:00,0.057042911648750305
2024-12-04 11:00:00,0.057284872978925705
2024-12-04 12:00:00,0.05530812591314316
2024-12-04 13:00:00,0.054338131099939346
2024-12-04 14:00:00,0.05319829285144806
2024-12-04 15:00:00,0.053362924605607986
2024-12-04 16:00:00,0.053687650710344315
2024-12-04 17:00:00,0.05162051320075989
2024-12-04 18:00:00,0.050181951373815536
2024-12-04 19:00:00,0.05011682212352753
2024-12-04 20:00:00,0.052160874009132385
2024-12-04 21:00:00,0.05173046886920929
2024-12-04 22:00:00,0.05126866325736046
2024-12-04 23:00:00,0.05121082440018654
2024-12-05 00:00:00,0.05188700929284096
2024-12-05 01:00:00,0.05176630988717079
2024-12-05 02:00:00,0.05103684216737747
2024-12-05 03:00:00,0.05097542703151703
2024-12-05 04:00:00,0.05025559663772583
2024-12-05 05:00:00,0.05118178948760033
2024-12-05 06:00:00,0.050031520426273346
2024-12-05 07:00:00,0.05043453350663185
2024-12-05 08:00:00,0.04995584487915039
2024-12-05 09:00:00,0.04590771719813347
2024-12-05 10:00:00,0.048315856605768204
2024-12-05 11:00:00,0.04840806871652603
