timestamp,price_usd
2024-11-15 00:00:00,0.015316725708544254
2024-11-15 01:00:00,0.01500086858868599
2024-11-15 02:00:00,0.014855295419692993
2024-11-15 03:00:00,0.015063626691699028
2024-11-15 04:00:00,0.015079704113304615
2024-11-15 05:00:00,0.01506089698523283
2024-11-15 06:00:00,0.015257188118994236
2024-11-15 07:00:00,0.015049684792757034
2024-11-15 08:00:00,0.015200010500848293
2024-11-15 09:00:00,0.015274743549525738
2024-11-15 10:00:00,0.015314316377043724
2024-11-15 11:00:00,0.015300143510103226
2024-11-15 12:00:00,0.01586119644343853
2024-11-15 13:00:00,0.01628393679857254
2024-11-15 14:00:00,0.016334371641278267
2024-11-15 15:00:00,0.015862321481108665
2024-11-15 16:00:00,0.01612904481589794
2024-11-15 17:00:00,0.016015810891985893
2024-11-15 18:00:00,0.016525687649846077
2024-11-15 19:00:00,0.016679150983691216
2024-11-15 20:00:00,0.016839804127812386
2024-11-15 21:00:00,0.016549810767173767
2024-11-15 22:00:00,0.017038661986589432
2024-11-15 23:00:00,0.01740918681025505
2024-11-16 00:00:00,0.01792559027671814
2024-11-16 01:00:00,0.017432142049074173
2024-11-16 02:00:00,0.017475340515375137
2024-11-16 03:00:00,0.017314381897449493
2024-11-16 04:00:00,0.017333127558231354
2024-11-16 05:00:00,0.01757766120135784
2024-11-16 06:00:00,0.01758018136024475
2024-11-16 07:00:00,0.017660921439528465
2024-11-16 08:00:00,0.01766519621014595
2024-11-16 09:00:00,0.017721936106681824
2024-11-16 10:00:00,0.01762085035443306
2024-11-16 11:00:00,0.01762308180332184
2024-11-16 12:00:00,0.017707839608192444
2024-11-16 13:00:00,0.017829230055212975
2024-11-16 14:00:00,0.0180378295481205
2024-11-16 15:00:00,0.017923815175890923
2024-11-16 16:00:00,0.01762612722814083
2024-11-16 17:00:00,0.017732474952936172
2024-11-16 18:00:00,0.017958786338567734
2024-11-16 19:00:00,0.018045272678136826
2024-11-16 20:00:00,0.017820419743657112
2024-11-16 21:00:00,0.017848467454314232
2024-11-16 22:00:00,0.01783324033021927
2024-11-16 23:00:00,0.017001166939735413
2024-11-17 00:00:00,0.017091508954763412
2024-11-17 01:00:00,0.017077084630727768
2024-11-17 02:00:00,0.016728416085243225
2024-11-17 03:00:00,0.016697656363248825
2024-11-17 04:00:00,0.017762761563062668
2024-11-17 05:00:00,0.01775037869811058
2024-11-17 06:00:00,0.017322484403848648
2024-11-17 07:00:00,0.01736515574157238
2024-11-17 08:00:00,0.017385020852088928
2024-11-17 09:00:00,0.017440643161535263
2024-11-17 10:00:00,0.017406554892659187
2024-11-17 11:00:00,0.01733526401221752
2024-11-17 12:00:00,0.01725473441183567
2024-11-17 13:00:00,0.01711561717092991
2024-11-17 14:00:00,0.01733025722205639
2024-11-17 15:00:00,0.01731688529253006
2024-11-17 16:00:00,0.017364460974931717
2024-11-17 17:00:00,0.017441540956497192
2024-11-17 18:00:00,0.0174082200974226
2024-11-17 19:00:00,0.017269399017095566
2024-11-17 20:00:00,0.01728065498173237
2024-11-17 21:00:00,0.017322057858109474
2024-11-17 22:00:00,0.016538189724087715
2024-11-17 23:00:00,0.016518672928214073
2024-11-18 00:00:00,0.01652374118566513
2024-11-18 01:00:00,0.01573222689330578
2024-11-18 02:00:00,0.01556809525936842
2024-11-18 03:00:00,0.015470840036869049
2024-11-18 04:00:00,0.015354910865426064
2024-11-18 05:00:00,0.015419398434460163
2024-11-18 06:00:00,0.015495572239160538
2024-11-18 07:00:00,0.01549624279141426
2024-11-18 08:00:00,0.015743402764201164
2024-11-18 09:00:00,0.01615622639656067
2024-11-18 10:00:00,0.01630949042737484
2024-11-18 11:00:00,0.016038663685321808
2024-11-18 12:00:00,0.016109449788928032
2024-11-18 13:00:00,0.016244636848568916
2024-11-18 14:00:00,0.016330936923623085
2024-11-18 15:00:00,0.01634511910378933
2024-11-18 16:00:00,0.01624593883752823
2024-11-18 17:00:00,0.016174370422959328
2024-11-18 18:00:00,0.016148481518030167
2024-11-18 19:00:00,0.01618354581296444
2024-11-18 20:00:00,0.016196878626942635
2024-11-18 21:00:00,0.01606740988790989
2024-11-18 22:00:00,0.01558758970350027
2024-11-18 23:00:00,0.01554030366241932
2024-11-19 00:00:00,0.015568586066365242
2024-11-19 01:00:00,0.01542384922504425
2024-11-19 02:00:00,0.015752222388982773
2024-11-19 03:00:00,0.015883376821875572
2024-11-19 04:00:00,0.014492279849946499
2024-11-19 05:00:00,0.014297429472208023
2024-11-19 06:00:00,0.014270774088799953
2024-11-19 07:00:00,0.014415756799280643
2024-11-19 08:00:00,0.014355549588799477
2024-11-19 09:00:00,0.014440095983445644
2024-11-19 10:00:00,0.014307656325399876
2024-11-19 11:00:00,0.014359243214130402
2024-11-19 12:00:00,0.014499262906610966
2024-11-19 13:00:00,0.01457885466516018
2024-11-19 14:00:00,0.014663089998066425
2024-11-19 15:00:00,0.014731766656041145
2024-11-19 16:00:00,0.014853917062282562
2024-11-19 17:00:00,0.015303663909435272
2024-11-19 18:00:00,0.015466375276446342
2024-11-19 19:00:00,0.015343068167567253
2024-11-19 20:00:00,0.015285026282072067
2024-11-19 21:00:00,0.015701118856668472
2024-11-19 22:00:00,0.015658318996429443
2024-11-19 23:00:00,0.01563224010169506
2024-11-20 00:00:00,0.015897581353783607
2024-11-20 01:00:00,0.015815310180187225
2024-11-20 02:00:00,0.015835078433156013
2024-11-20 03:00:00,0.015888426452875137
2024-11-20 04:00:00,0.01578681170940399
2024-11-20 05:00:00,0.01575327478349209
2024-11-20 06:00:00,0.01756312884390354
2024-11-20 07:00:00,0.016887620091438293
2024-11-20 08:00:00,0.016575485467910767
2024-11-20 09:00:00,0.01617676578462124
2024-11-20 10:00:00,0.016070624813437462
2024-11-20 11:00:00,0.01634826324880123
2024-11-20 12:00:00,0.016028810292482376
2024-11-20 13:00:00,0.016888141632080078
2024-11-20 14:00:00,0.016943935304880142
2024-11-20 15:00:00,0.017029793933033943
2024-11-20 16:00:00,0.017115958034992218
2024-11-20 17:00:00,0.017253328114748
2024-11-20 18:00:00,0.016948603093624115
2024-11-20 19:00:00,0.015819627791643143
2024-11-20 20:00:00,0.015817219391465187
2024-11-20 21:00:00,0.016093743965029716
2024-11-20 22:00:00,0.016071835532784462
2024-11-20 23:00:00,0.01594267413020134
2024-11-21 00:00:00,0.01602170057594776
2024-11-21 01:00:00,0.01608777977526188
2024-11-21 02:00:00,0.016021467745304108
2024-11-21 03:00:00,0.016050884500145912
2024-11-21 04:00:00,0.016230085864663124
2024-11-21 05:00:00,0.016361510381102562
2024-11-21 06:00:00,0.016281764954328537
2024-11-21 07:00:00,0.01568281278014183
2024-11-21 08:00:00,0.01571989618241787
2024-11-21 09:00:00,0.01627998612821102
2024-11-21 10:00:00,0.01592748984694481
2024-11-21 11:00:00,0.015850670635700226
2024-11-21 12:00:00,0.016066323965787888
2024-11-21 13:00:00,0.016176830977201462
2024-11-21 14:00:00,0.01625272072851658
2024-11-21 15:00:00,0.015903765335679054
2024-11-21 16:00:00,0.01603006012737751
2024-11-21 17:00:00,0.01606840267777443
2024-11-21 18:00:00,0.016054343432188034
2024-11-21 19:00:00,0.016225185245275497
2024-11-21 20:00:00,0.015886278823018074
2024-11-21 21:00:00,0.016041889786720276
2024-11-21 22:00:00,0.016503170132637024
2024-11-21 23:00:00,0.01657653972506523
2024-11-22 00:00:00,0.01667022332549095
2024-11-22 01:00:00,0.016224971041083336
2024-11-22 02:00:00,0.016230354085564613
2024-11-22 03:00:00,0.01625417172908783
2024-11-22 04:00:00,0.01721884310245514
2024-11-22 05:00:00,0.0173210296779871
2024-11-22 06:00:00,0.017148153856396675
2024-11-22 07:00:00,0.017181552946567535
2024-11-22 08:00:00,0.017256207764148712
2024-11-22 09:00:00,0.017162004485726357
2024-11-22 10:00:00,0.016858909279108047
2024-11-22 11:00:00,0.016870971769094467
2024-11-22 12:00:00,0.016814537346363068
2024-11-22 13:00:00,0.019662683829665184
2024-11-22 14:00:00,0.019845159724354744
2024-11-22 15:00:00,0.018809383735060692
2024-11-22 16:00:00,0.019096722826361656
2024-11-22 17:00:00,0.019192064180970192
2024-11-22 18:00:00,0.01851038634777069
2024-11-22 19:00:00,0.01813497394323349
2024-11-22 20:00:00,0.018244754523038864
2024-11-22 21:00:00,0.018913080915808678
2024-11-22 22:00:00,0.018598660826683044
2024-11-22 23:00:00,0.018528657034039497
2024-11-23 00:00:00,0.018158365041017532
2024-11-23 01:00:00,0.017560696229338646
2024-11-23 02:00:00,0.01720319502055645
2024-11-23 03:00:00,0.017225956544280052
2024-11-23 04:00:00,0.017309661954641342
2024-11-23 05:00:00,0.017374534159898758
2024-11-23 06:00:00,0.016921961680054665
2024-11-23 07:00:00,0.017782418057322502
2024-11-23 08:00:00,0.019363626837730408
2024-11-23 09:00:00,0.0191247146576643
2024-11-23 10:00:00,0.01900758035480976
2024-11-23 11:00:00,0.019347496330738068
2024-11-23 12:00:00,0.01917097344994545
2024-11-23 13:00:00,0.019352663308382034
2024-11-23 14:00:00,0.019355682656168938
2024-11-23 15:00:00,0.019449995830655098
2024-11-23 16:00:00,0.01852927915751934
2024-11-23 17:00:00,0.018648140132427216
2024-11-23 18:00:00,0.018609201535582542
2024-11-23 19:00:00,0.01887846365571022
2024-11-23 20:00:00,0.019721703603863716
2024-11-23 21:00:00,0.02018742635846138
2024-11-23 22:00:00,0.020471548661589622
2024-11-23 23:00:00,0.022306928411126137
2024-11-24 00:00:00,0.02248959243297577
2024-11-24 01:00:00,0.021527495235204697
2024-11-24 02:00:00,0.020855775102972984
2024-11-24 03:00:00,0.020962180569767952
2024-11-24 04:00:00,0.020917145535349846
2024-11-24 05:00:00,0.021037496626377106
2024-11-24 06:00:00,0.02129065990447998
2024-11-24 07:00:00,0.02119850553572178
2024-11-24 08:00:00,0.02146787755191326
2024-11-24 09:00:00,0.02136833593249321
2024-11-24 10:00:00,0.021498579531908035
2024-11-24 11:00:00,0.021257346495985985
2024-11-24 12:00:00,0.020404832437634468
2024-11-24 13:00:00,0.01995375193655491
2024-11-24 14:00:00,0.02077079750597477
2024-11-24 15:00:00,0.020676080137491226
2024-11-24 16:00:00,0.02044498175382614
2024-11-24 17:00:00,0.020333800464868546
2024-11-24 18:00:00,0.020368307828903198
2024-11-24 19:00:00,0.020233500748872757
2024-11-24 20:00:00,0.020746475085616112
2024-11-24 21:00:00,0.020753316581249237
2024-11-24 22:00:00,0.02075411006808281
2024-11-24 23:00:00,0.021045483648777008
2024-11-25 00:00:00,0.021319525316357613
2024-11-25 01:00:00,0.02114165388047695
2024-11-25 02:00:00,0.02085953764617443
2024-11-25 03:00:00,0.0208895280957222
2024-11-25 04:00:00,0.020948326215147972
2024-11-25 05:00:00,0.02106681652367115
2024-11-25 06:00:00,0.021055100485682487
2024-11-25 07:00:00,0.021014414727687836
2024-11-25 08:00:00,0.021995019167661667
2024-11-25 09:00:00,0.02273603156208992
2024-11-25 10:00:00,0.022640302777290344
2024-11-25 11:00:00,0.024506863206624985
2024-11-25 12:00:00,0.025115936994552612
2024-11-25 13:00:00,0.024613220244646072
2024-11-25 14:00:00,0.02430078387260437
2024-11-25 15:00:00,0.02632051147520542
2024-11-25 16:00:00,0.027189992368221283
2024-11-25 17:00:00,0.02768513187766075
2024-11-25 18:00:00,0.027726080268621445
2024-11-25 19:00:00,0.025881754234433174
2024-11-25 20:00:00,0.026221629232168198
2024-11-25 21:00:00,0.026854341849684715
2024-11-25 22:00:00,0.025953274220228195
2024-11-25 23:00:00,0.02542690746486187
2024-11-26 00:00:00,0.025485312566161156
2024-11-26 01:00:00,0.026411306113004684
2024-11-26 02:00:00,0.02685205452144146
2024-11-26 03:00:00,0.026824457570910454
2024-11-26 04:00:00,0.026857970282435417
2024-11-26 05:00:00,0.027102217078208923
2024-11-26 06:00:00,0.02726009301841259
2024-11-26 07:00:00,0.027692997828125954
2024-11-26 08:00:00,0.02732350490987301
2024-11-26 09:00:00,0.028532739728689194
2024-11-26 10:00:00,0.029078200459480286
2024-11-26 11:00:00,0.02571813389658928
2024-11-26 12:00:00,0.025342104956507683
2024-11-26 13:00:00,0.025496596470475197
2024-11-26 14:00:00,0.030158108100295067
2024-11-26 15:00:00,0.03262148052453995
2024-11-26 16:00:00,0.03204227611422539
2024-11-26 17:00:00,0.03298119828104973
2024-11-26 18:00:00,0.036215536296367645
2024-11-26 19:00:00,0.03358370438218117
2024-11-26 20:00:00,0.033490680158138275
2024-11-26 21:00:00,0.032732825726270676
2024-11-26 22:00:00,0.03567354008555412
2024-11-26 23:00:00,0.035632338374853134
2024-11-27 00:00:00,0.03658875450491905
2024-11-27 01:00:00,0.03561321645975113
2024-11-27 02:00:00,0.03346586227416992
2024-11-27 03:00:00,0.033295996487140656
2024-11-27 04:00:00,0.03302321210503578
2024-11-27 05:00:00,0.034154582768678665
2024-11-27 06:00:00,0.03517386317253113
2024-11-27 07:00:00,0.03548377752304077
2024-11-27 08:00:00,0.03569640964269638
2024-11-27 09:00:00,0.03462858498096466
2024-11-27 10:00:00,0.03505374863743782
2024-11-27 11:00:00,0.034991927444934845
2024-11-27 12:00:00,0.03347514569759369
2024-11-27 13:00:00,0.03304697573184967
2024-11-27 14:00:00,0.03178888186812401
2024-11-27 15:00:00,0.03466814383864403
2024-11-27 16:00:00,0.033439621329307556
2024-11-27 17:00:00,0.03386710584163666
2024-11-27 18:00:00,0.03166704997420311
2024-11-27 19:00:00,0.032221969217061996
2024-11-27 20:00:00,0.031897179782390594
2024-11-27 21:00:00,0.031451646238565445
2024-11-27 22:00:00,0.031032752245664597
2024-11-27 23:00:00,0.031022589653730392
2024-11-28 00:00:00,0.0321141816675663
2024-11-28 01:00:00,0.03244021534919739
2024-11-28 02:00:00,0.03229638561606407
2024-11-28 03:00:00,0.031688787043094635
2024-11-28 04:00:00,0.03120720572769642
2024-11-28 05:00:00,0.030681926757097244
2024-11-28 06:00:00,0.030630316585302353
2024-11-28 07:00:00,0.030313467606902122
2024-11-28 08:00:00,0.030126696452498436
2024-11-28 09:00:00,0.03124447725713253
2024-11-28 10:00:00,0.03133898600935936
2024-11-28 11:00:00,0.03168582171201706
2024-11-28 12:00:00,0.03354877233505249
2024-11-28 13:00:00,0.03283359482884407
2024-11-28 14:00:00,0.03256581351161003
2024-11-28 15:00:00,0.0319565087556839
2024-11-28 16:00:00,0.032103922218084335
2024-11-28 17:00:00,0.03205255791544914
2024-11-28 18:00:00,0.03147145360708237
2024-11-28 19:00:00,0.03151186555624008
2024-11-28 20:00:00,0.03191206231713295
2024-11-28 21:00:00,0.03265397250652313
2024-11-28 22:00:00,0.0338292196393013
2024-11-28 23:00:00,0.0343397855758667
2024-11-29 00:00:00,0.03451339155435562
2024-11-29 01:00:00,0.03582744672894478
2024-11-29 02:00:00,0.036345306783914566
2024-11-29 03:00:00,0.036672528833150864
2024-11-29 04:00:00,0.0365680530667305
2024-11-29 05:00:00,0.03613764047622681
2024-11-29 06:00:00,0.0365835577249527
2024-11-29 07:00:00,0.03450483828783035
2024-11-29 08:00:00,0.03192804381251335
2024-11-29 09:00:00,0.035825300961732864
2024-11-29 10:00:00,0.0363796204328537
2024-11-29 11:00:00,0.03620786964893341
2024-11-29 12:00:00,0.038219284266233444
2024-11-29 13:00:00,0.03780199959874153
2024-11-29 14:00:00,0.037072207778692245
2024-11-29 15:00:00,0.037767309695482254
2024-11-29 16:00:00,0.03767693415284157
2024-11-29 17:00:00,0.04123993217945099
2024-11-29 18:00:00,0.04072517901659012
2024-11-29 19:00:00,0.040234409272670746
2024-11-29 20:00:00,0.0399477519094944
2024-11-29 21:00:00,0.03929940238595009
2024-11-29 22:00:00,0.03822627291083336
2024-11-29 23:00:00,0.038173578679561615
2024-11-30 00:00:00,0.038455042988061905
2024-11-30 01:00:00,0.03786230832338333
2024-11-30 02:00:00,0.03838181123137474
2024-11-30 03:00:00,0.03775668144226074
2024-11-30 04:00:00,0.038009729236364365
2024-11-30 05:00:00,0.03798908740282059
2024-11-30 06:00:00,0.03730183467268944
2024-11-30 07:00:00,0.03819297254085541
2024-11-30 08:00:00,0.03825768828392029
2024-11-30 09:00:00,0.038657911121845245
2024-11-30 10:00:00,0.0411260612308979
2024-11-30 11:00:00,0.04180491343140602
2024-11-30 12:00:00,0.041383761912584305
2024-11-30 13:00:00,0.042762041091918945
2024-11-30 14:00:00,0.04415986314415932
2024-11-30 15:00:00,0.04337869584560394
2024-11-30 16:00:00,0.043908048421144485
2024-11-30 17:00:00,0.045481279492378235
2024-11-30 18:00:00,0.04769347235560417
2024-11-30 19:00:00,0.04748065024614334
2024-11-30 20:00:00,0.04538319259881973
2024-11-30 21:00:00,0.04235634580254555
2024-11-30 22:00:00,0.04668721184134483
2024-11-30 23:00:00,0.045710984617471695
2024-12-01 00:00:00,0.04578864201903343
2024-12-01 01:00:00,0.04643522948026657
2024-12-01 02:00:00,0.04539993777871132
2024-12-01 03:00:00,0.0453181229531765
2024-12-01 04:00:00,0.04074455052614212
2024-12-01 05:00:00,0.04017416015267372
2024-12-01 06:00:00,0.040988024324178696
2024-12-01 07:00:00,0.041139572858810425
2024-12-01 08:00:00,0.04600401595234871
2024-12-01 09:00:00,0.04673963785171509
2024-12-01 10:00:00,0.04685700312256813
2024-12-01 11:00:00,0.04237327724695206
2024-12-01 12:00:00,0.045182716101408005
2024-12-01 13:00:00,0.04435618594288826
2024-12-01 14:00:00,0.045113351196050644
2024-12-01 15:00:00,0.045138828456401825
2024-12-01 16:00:00,0.043253686279058456
2024-12-01 17:00:00,0.04424842819571495
2024-12-01 18:00:00,0.04365462809801102
2024-12-01 19:00:00,0.04530208930373192
2024-12-01 20:00:00,0.045284971594810486
2024-12-01 21:00:00,0.044324543327093124
2024-12-01 22:00:00,0.043370045721530914
2024-12-01 23:00:00,0.04143673554062843
2024-12-02 00:00:00,0.04076702520251274
2024-12-02 01:00:00,0.040067560970783234
2024-12-02 02:00:00,0.039906349033117294
2024-12-02 03:00:00,0.040896326303482056
2024-12-02 04:00:00,0.042279355227947235
2024-12-02 05:00:00,0.04195285215973854
2024-12-02 06:00:00,0.041760992258787155
2024-12-02 07:00:00,0.04141039773821831
2024-12-02 08:00:00,0.039779145270586014
2024-12-02 09:00:00,0.03971056267619133
2024-12-02 10:00:00,0.041173726320266724
2024-12-02 11:00:00,0.04345189779996872
2024-12-02 12:00:00,0.04356943443417549
2024-12-02 13:00:00,0.043779172003269196
2024-12-02 14:00:00,0.04399172589182854
2024-12-02 15:00:00,0.04351595789194107
2024-12-02 16:00:00,0.044820353388786316
2024-12-02 17:00:00,0.04720601066946983
2024-12-02 18:00:00,0.04718419164419174
2024-12-02 19:00:00,0.04817645996809006
2024-12-02 20:00:00,0.04861131310462952
2024-12-02 21:00:00,0.049111273139715195
2024-12-02 22:00:00,0.05036662518978119
2024-12-02 23:00:00,0.050578732043504715
2024-12-03 00:00:00,0.04908352717757225
2024-12-03 01:00:00,0.046936843544244766
2024-12-03 02:00:00,0.04663751274347305
2024-12-03 03:00:00,0.04883246123790741
2024-12-03 04:00:00,0.04991820454597473
2024-12-03 05:00:00,0.05053232982754707
2024-12-03 06:00:00,0.05126212537288666
2024-12-03 07:00:00,0.052849043160676956
2024-12-03 08:00:00,0.053803425282239914
2024-12-03 09:00:00,0.05526469647884369
2024-12-03 10:00:00,0.055034469813108444
2024-12-03 11:00:00,0.05658227577805519
2024-12-03 12:00:00,0.06009421870112419
2024-12-03 13:00:00,0.055486083030700684
2024-12-03 14:00:00,0.0575665719807148
2024-12-03 15:00:00,0.05379138141870499
2024-12-03 16:00:00,0.05075884237885475
2024-12-03 17:00:00,0.05892001464962959
2024-12-03 18:00:00,0.058714088052511215
2024-12-03 19:00:00,0.05559122934937477
2024-12-03 20:00:00,0.048962268978357315
2024-12-03 21:00:00,0.05493408069014549
2024-12-03 22:00:00,0.05375783517956734
2024-12-03 23:00:00,0.05247163400053978
2024-12-04 00:00:00,0.054524630308151245
2024-12-04 01:00:00,0.053161025047302246
2024-12-04 02:00:00,0.052884917706251144
2024-12-04 03:00:00,0.051919881254434586
2024-12-04 04:00:00,0.05121956020593643
2024-12-04 05:00:00,0.04915988817811012
2024-12-04 06:00:00,0.049015045166015625
2024-12-04 07:00:00,0.04930390790104866
2024-12-04 08:00:00,0.05034080520272255
2024-12-04 09:00:00,0.05262218415737152
2024-12-04 10:00:00,0.057042911648750305
2024-12-04 11:00:00,0.057284872978925705
2024-12-04 12:00:00,0.05530812591314316
2024-12-04 13:00:00,0.054338131099939346
2024-12-04 14:00:00,0.05319829285144806
2024-12-04 15:00:00,0.053362924605607986
2024-12-04 16:00:00,0.053687650710344315
2024-12-04 17:00:00,0.05162051320075989
2024-12-04 18:00:00,0.050181951373815536
2024-12-04 19:00:00,0.05011682212352753
2024-12-04 20:00:00,0.052160874009132385
2024-12-04 21:00:00,0.05173046886920929
2024-12-04 22:00:00,0.05126866325736046
2024-12-04 23:00:00,0.05121082440018654
2024-12-05 00:00:00,0.05188700929284096
2024-12-05 01:00:00,0.05176630988717079
2024-12-05 02:00:00,0.05103684216737747
2024-12-05 03:00:00,0.05097542703151703
2024-12-05 04:00:00,0.05025559663772583
2024-12-05 05:00:00,0.05118178948760033
2024-12-05 06:00:00,0.050031520426273346
2024-12-05 07:00:00,0.05043453350663185
2024-12-05 08:00:00,0.04995584487915039
2024-12-05 09:00:00,0.04590771719813347
2024-12-05 10:00:00,0.048315856605768204
2024-12-05 11:00:00,0.04868635535240173
2024-12-05 12:00:00,0.04579421132802963
2024-12-05 13:00:00,0.045934055000543594
2024-12-05 14:00:00,0.048187196254730225
2024-12-05 15:00:00,0.04763937368988991
2024-12-05 16:00:00,0.045809585601091385
2024-12-05 17:00:00,0.04442565143108368
2024-12-05 18:00:00,0.04348572716116905
2024-12-05 19:00:00,0.04465083032846451
2024-12-05 20:00:00,0.04480670392513275
2024-12-05 21:00:00,0.04515313357114792
2024-12-05 22:00:00,0.04739531874656677
2024-12-05 23:00:00,0.04589994624257088
2024-12-06 00:00:00,0.04574849456548691
2024-12-06 01:00:00,0.04555758461356163
2024-12-06 02:00:00,0.04560267925262451
2024-12-06 03:00:00,0.04498978331685066
2024-12-06 04:00:00,0.0451534129679203
2024-12-06 05:00:00,0.04399196803569794
2024-12-06 06:00:00,0.04300215467810631
2024-12-06 07:00:00,0.04230913892388344
2024-12-06 08:00:00,0.042263343930244446
2024-12-06 09:00:00,0.041487567126750946
2024-12-06 10:00:00,0.041451677680015564
2024-12-06 11:00:00,0.04157191887497902
2024-12-06 12:00:00,0.042682815343141556
2024-12-06 13:00:00,0.042271316051483154
2024-12-06 14:00:00,0.044223446398973465
2024-12-06 15:00:00,0.04624108225107193
2024-12-06 16:00:00,0.042411282658576965
2024-12-06 17:00:00,0.04154210165143013
2024-12-06 18:00:00,0.04469806328415871
2024-12-06 19:00:00,0.04351699352264404
2024-12-06 20:00:00,0.042679041624069214
2024-12-06 21:00:00,0.04347607493400574
2024-12-06 22:00:00,0.04319163039326668
2024-12-06 23:00:00,0.044028788805007935
2024-12-07 00:00:00,0.04629182070493698
2024-12-07 01:00:00,0.05081859230995178
2024-12-07 02:00:00,0.05305534601211548
2024-12-07 03:00:00,0.05405039340257645
2024-12-07 04:00:00,0.06200186908245087
2024-12-07 05:00:00,0.05443165451288223
2024-12-07 06:00:00,0.05474340170621872
2024-12-07 07:00:00,0.05045885965228081
2024-12-07 08:00:00,0.05083325505256653
2024-12-07 09:00:00,0.05040042847394943
2024-12-07 10:00:00,0.0519004687666893
2024-12-07 11:00:00,0.054398972541093826
2024-12-07 12:00:00,0.053545594215393066
2024-12-07 13:00:00,0.05223415046930313
2024-12-07 14:00:00,0.0522628054022789
2024-12-07 15:00:00,0.050735343247652054
2024-12-07 16:00:00,0.05200215056538582
2024-12-07 17:00:00,0.05154557526111603
2024-12-07 18:00:00,0.05061289668083191
2024-12-07 19:00:00,0.05108027160167694
2024-12-07 20:00:00,0.0506516695022583
2024-12-07 21:00:00,0.05041750147938728
2024-12-07 22:00:00,0.052480824291706085
2024-12-07 23:00:00,0.05320124328136444
2024-12-08 00:00:00,0.05495695024728775
2024-12-08 01:00:00,0.05472855269908905
2024-12-08 02:00:00,0.05338016152381897
2024-12-08 03:00:00,0.05032023787498474
2024-12-08 04:00:00,0.04884945601224899
2024-12-08 05:00:00,0.04728279262781143
2024-12-08 06:00:00,0.04740888625383377
2024-12-08 07:00:00,0.04799086973071098
2024-12-08 08:00:00,0.048464562743902206
2024-12-08 09:00:00,0.04826825484633446
2024-12-08 10:00:00,0.04792231321334839
2024-12-08 11:00:00,0.04876980558037758
2024-12-08 12:00:00,0.048668596893548965
2024-12-08 13:00:00,0.050582993775606155
2024-12-08 14:00:00,0.05161610618233681
2024-12-08 15:00:00,0.05122963711619377
2024-12-08 16:00:00,0.057294074445962906
2024-12-08 17:00:00,0.05736301839351654
2024-12-08 18:00:00,0.05859099328517914
2024-12-08 19:00:00,0.05737237632274628
2024-12-08 20:00:00,0.055522508919239044
2024-12-08 21:00:00,0.05583536997437477
2024-12-08 22:00:00,0.05594619736075401
2024-12-08 23:00:00,0.05785271152853966
2024-12-09 00:00:00,0.05807971581816673
2024-12-09 01:00:00,0.05810646712779999
2024-12-09 02:00:00,0.05808635428547859
2024-12-09 03:00:00,0.05744069442152977
2024-12-09 04:00:00,0.05787276476621628
2024-12-09 05:00:00,0.05791664868593216
2024-12-09 06:00:00,0.05844476446509361
2024-12-09 07:00:00,0.0552794449031353
2024-12-09 08:00:00,0.05417187511920929
2024-12-09 09:00:00,0.04638345167040825
2024-12-09 10:00:00,0.049371387809515
2024-12-09 11:00:00,0.05044706165790558
2024-12-09 12:00:00,0.049945030361413956
2024-12-09 13:00:00,0.05019557103514671
2024-12-09 14:00:00,0.050077177584171295
2024-12-09 15:00:00,0.0498114638030529
2024-12-09 16:00:00,0.05366206914186478
2024-12-09 17:00:00,0.053629133850336075
2024-12-09 18:00:00,0.052259884774684906
2024-12-09 19:00:00,0.05216991528868675
2024-12-09 20:00:00,0.05039624869823456
2024-12-09 21:00:00,0.049553338438272476
2024-12-09 22:00:00,0.04731111228466034
2024-12-09 23:00:00,0.047976523637771606
2024-12-10 00:00:00,0.04973466321825981
2024-12-10 01:00:00,0.05042319372296333
2024-12-10 02:00:00,0.05013115704059601
2024-12-10 03:00:00,0.04595265910029411
2024-12-10 04:00:00,0.044062454253435135
2024-12-10 05:00:00,0.04378204420208931
2024-12-10 06:00:00,0.04692970588803291
2024-12-10 07:00:00,0.04879458248615265
2024-12-10 08:00:00,0.04946994408965111
2024-12-10 09:00:00,0.0505756177008152
2024-12-10 10:00:00,0.05247019603848457
2024-12-10 11:00:00,0.054323628544807434
2024-12-10 12:00:00,0.0517674945294857
2024-12-10 13:00:00,0.0545453242957592
2024-12-10 14:00:00,0.0534098744392395
2024-12-10 15:00:00,0.04995022714138031
2024-12-10 16:00:00,0.047567762434482574
2024-12-10 17:00:00,0.05087145417928696
2024-12-10 18:00:00,0.05050552263855934
2024-12-10 19:00:00,0.05133288726210594
2024-12-10 20:00:00,0.050297968089580536
2024-12-10 21:00:00,0.050688181072473526
2024-12-10 22:00:00,0.05170770734548569
2024-12-10 23:00:00,0.05303789675235748
2024-12-11 00:00:00,0.05292545258998871
2024-12-11 01:00:00,0.052641890943050385
2024-12-11 02:00:00,0.05275140330195427
2024-12-11 03:00:00,0.05334918200969696
2024-12-11 04:00:00,0.05366725102066994
2024-12-11 05:00:00,0.05294107273221016
2024-12-11 06:00:00,0.052786070853471756
2024-12-11 07:00:00,0.05324259772896767
2024-12-11 08:00:00,0.05346465855836868
2024-12-11 09:00:00,0.055784810334444046
2024-12-11 10:00:00,0.05863439291715622
2024-12-11 11:00:00,0.0606924332678318
2024-12-11 12:00:00,0.0610586553812027
2024-12-11 13:00:00,0.0573565773665905
2024-12-11 14:00:00,0.06009465456008911
2024-12-11 15:00:00,0.060548145323991776
2024-12-11 16:00:00,0.059428613632917404
2024-12-11 17:00:00,0.05722704529762268
2024-12-11 18:00:00,0.05333464592695236
2024-12-11 19:00:00,0.05503053963184357
2024-12-11 20:00:00,0.05795229598879814
2024-12-11 21:00:00,0.05863404646515846
2024-12-11 22:00:00,0.05952813848853111
2024-12-11 23:00:00,0.0605262853205204
2024-12-12 00:00:00,0.059376806020736694
2024-12-12 01:00:00,0.060090456157922745
2024-12-12 02:00:00,0.06220591068267822
2024-12-12 03:00:00,0.06201435998082161
2024-12-12 04:00:00,0.06171848624944687
2024-12-12 05:00:00,0.062244925647974014
2024-12-12 06:00:00,0.0605255551636219
2024-12-12 07:00:00,0.0597243495285511
2024-12-12 08:00:00,0.059847161173820496
2024-12-12 09:00:00,0.06070695072412491
2024-12-12 10:00:00,0.05932818353176117
2024-12-12 11:00:00,0.05797842517495155
2024-12-12 12:00:00,0.057172227650880814
2024-12-12 13:00:00,0.05613476037979126
2024-12-12 14:00:00,0.05515193194150925
2024-12-12 15:00:00,0.05410298332571983
2024-12-12 16:00:00,0.053647346794605255
2024-12-12 17:00:00,0.05708862841129303
2024-12-12 18:00:00,0.05922224372625351
2024-12-12 19:00:00,0.05727066099643707
2024-12-12 20:00:00,0.056208424270153046
2024-12-12 21:00:00,0.055397678166627884
2024-12-12 22:00:00,0.0552525669336319
2024-12-12 23:00:00,0.05533114820718765
2024-12-13 00:00:00,0.055715907365083694
2024-12-13 01:00:00,0.055508047342300415
2024-12-13 02:00:00,0.05539608374238014
2024-12-13 03:00:00,0.055446088314056396
2024-12-13 04:00:00,0.05411690101027489
2024-12-13 05:00:00,0.05424390360713005
2024-12-13 06:00:00,0.05410102382302284
2024-12-13 07:00:00,0.05363171547651291
2024-12-13 08:00:00,0.05350930988788605
2024-12-13 09:00:00,0.05471198633313179
2024-12-13 10:00:00,0.054988306015729904
2024-12-13 11:00:00,0.05556987598538399
2024-12-13 12:00:00,0.05549599975347519
2024-12-13 13:00:00,0.05387357994914055
2024-12-13 14:00:00,0.05498629808425903
2024-12-13 15:00:00,0.06082089990377426
2024-12-13 16:00:00,0.06191929429769516
2024-12-13 17:00:00,0.06219297647476196
2024-12-13 18:00:00,0.06293801218271255
2024-12-13 19:00:00,0.06207817792892456
2024-12-13 20:00:00,0.06500406563282013
2024-12-13 21:00:00,0.06294957548379898
2024-12-13 22:00:00,0.06274522095918655
2024-12-13 23:00:00,0.06304636597633362
2024-12-14 00:00:00,0.06400073319673538
2024-12-14 01:00:00,0.06537234783172607
2024-12-14 02:00:00,0.06498167663812637
2024-12-14 03:00:00,0.06343358010053635
2024-12-14 04:00:00,0.06443849205970764
2024-12-14 05:00:00,0.06461402028799057
2024-12-14 06:00:00,0.06419394910335541
2024-12-14 07:00:00,0.0626034215092659
2024-12-14 08:00:00,0.06215396896004677
2024-12-14 09:00:00,0.06295391917228699
2024-12-14 10:00:00,0.06260072439908981
2024-12-14 11:00:00,0.06179932504892349
2024-12-14 12:00:00,0.06271252036094666
2024-12-14 13:00:00,0.06256978213787079
2024-12-14 14:00:00,0.06316530704498291
2024-12-14 15:00:00,0.06389379501342773
2024-12-14 16:00:00,0.06199011206626892
2024-12-14 17:00:00,0.06122174113988876
2024-12-14 18:00:00,0.06085178628563881
2024-12-14 19:00:00,0.06091742217540741
2024-12-14 20:00:00,0.06102783605456352
2024-12-14 21:00:00,0.0610448494553566
2024-12-14 22:00:00,0.060913264751434326
2024-12-14 23:00:00,0.06129533424973488
2024-12-15 00:00:00,0.06405258923768997
